
Integration time [ms]: 1000.000
Averaging Nr. [scans]: 1
Smoothing Nr. [pixels]: 0
Data measured with spectrometer [name]: 1308032U1
Wave   ;Sample   ;Dark     ;Reference;Scope
[nm]   ;[counts] ;[counts] ;[counts] 

175.728; 3711.167;  654.278; 3579.056
176.329; 3487.167;  569.278; 3311.056
176.930; 3521.167;  627.278; 3417.056
177.530; 3439.167;  545.278; 3324.056
178.131; 2991.167;  339.278; 2905.056
178.732; 2989.167;  510.278; 2899.056
179.332; 3029.167;  533.278; 2879.056
179.933; 4550.167;  654.278; 3708.056
180.534; 2867.167;  485.278; 2755.056
181.134; 2739.167;  480.278; 2716.056
181.735; 2518.167;  402.278; 2447.056
182.335; 2590.167;  425.278; 2561.056
182.936; 2454.167;  406.278; 2423.056
183.536; 2351.167;  381.278; 2199.056
184.137; 2481.167;  405.278; 2385.056
184.737; 2208.167;  376.278; 2163.056
185.338; 2372.167;  339.278; 2260.056
185.938; 2202.167;  356.278; 2141.056
186.538; 2275.167;  361.278; 2225.056
187.139; 2160.167;  317.278; 2074.056
187.739; 2185.167;  347.278; 2103.056
188.339; 2109.167;  308.278; 1973.056
188.939; 2226.167;  335.278; 2086.056
189.540; 2105.167;  309.278; 2024.056
190.140; 1875.167;  275.278; 1752.056
190.740; 1906.167;  258.278; 1773.056
191.340; 2034.167;  319.278; 1948.056
191.940; 1790.167;  268.278; 1720.056
192.540; 1908.167;  289.278; 1829.056
193.140; 1771.167;  244.278; 1611.056
193.740; 1672.167;  254.278; 1590.056
194.340; 1748.167;  260.278; 1665.056
194.940; 1738.167;  237.278; 1665.056
195.540; 1663.167;  241.278; 1616.056
196.140; 1723.167;  263.278; 1653.056
196.740; 1795.167;  262.278; 1770.056
197.340; 1445.167;  217.278; 1418.056
197.940; 1664.167;  223.278; 1602.056
198.539; 1469.167;  163.278; 1337.056
199.139; 1425.167;  196.278; 1322.056
199.739; 1589.167;  216.278; 1524.056
200.339; 1510.167;  235.278; 1400.056
200.938; 1525.167;  206.278; 1404.056
201.538; 1496.167;  208.278; 1418.056
202.138; 1424.167;  159.278; 1326.056
202.737; 1390.167;  179.278; 1313.056
203.337; 1568.167;  222.278; 1427.056
203.936; 1210.167;  176.278; 1249.056
204.536; 1433.167;  159.278; 1310.056
205.135; 1435.167;  198.278; 1346.056
205.735; 1456.167;  154.278; 1342.056
206.334; 1343.167;  202.278; 1301.056
206.934; 1416.167;  191.278; 1372.056
207.533; 1358.167;  168.278; 1282.056
208.132; 1443.167;  172.278; 1280.056
208.732; 1545.167;  182.278; 1440.056
209.331; 1441.167;  158.278; 1358.056
209.930; 1639.167;  226.278; 1557.056
210.529; 1352.167;  181.278; 1276.056
211.129; 1289.167;  161.278; 1233.056
211.728; 1704.167;  224.278; 1585.056
212.327; 1318.167;  152.278; 1178.056
212.926; 1395.167;  106.278; 1308.056
213.525; 1449.167;  173.278; 1383.056
214.124; 1266.167;  167.278; 1172.056
214.723; 1275.167;  169.278; 1200.056
215.322; 1176.167;   97.278; 1060.056
215.921; 1157.167;  156.278; 1095.056
216.520; 1266.167;  139.278; 1191.056
217.119; 1288.167;  158.278; 1165.056
217.718; 1173.167;  153.278; 1101.056
218.317; 1289.167;  173.278; 1199.056
218.916; 1508.167;  183.278; 1389.056
219.514; 1424.167;  200.278; 1325.056
220.113; 1665.167;  192.278; 1596.056
220.712; 1256.167;  175.278; 1162.056
221.311; 1686.167;  215.278; 1563.056
221.909; 1235.167;  168.278; 1162.056
222.508; 1469.167;  203.278; 1402.056
223.107; 1326.167;  175.278; 1219.056
223.705; 1383.167;  150.278; 1318.056
224.304; 1410.167;  162.278; 1373.056
224.903; 1185.167;  167.278; 1122.056
225.501; 1352.167;  208.278; 1276.056
226.100; 1268.167;  114.278; 1171.056
226.698; 1095.167;  132.278;  996.056
227.296; 1278.167;  150.278; 1212.056
227.895; 1262.167;  174.278; 1294.056
228.493; 1263.167;  165.278; 1153.056
229.092; 1117.167;  114.278; 1053.056
229.690; 1383.167;  143.278; 1237.056
230.288; 1554.167;  226.278; 1479.056
230.887; 1382.167;  148.278; 1276.056
231.485; 1185.167;  163.278; 1114.056
232.083; 1194.167;  168.278; 1082.056
232.681; 1363.167;  204.278; 1282.056
233.279; 2470.167;  504.278; 3029.056
233.877; 1146.167;  153.278; 1057.056
234.476; 1196.167;  118.278; 1132.056
235.074; 1476.167;  185.278; 1380.056
235.672; 1159.167;  149.278; 1082.056
236.270; 1234.167;  149.278; 1246.056
236.868; 1158.167;  139.278; 1046.056
237.466; 1289.167;  176.278; 1189.056
238.064; 1257.167;  113.278; 1171.056
238.661; 1305.167;  175.278; 1228.056
239.259; 1264.167;  173.278; 1164.056
239.857; 1180.167;  154.278; 1160.056
240.455; 1168.167;  135.278; 1038.056
241.053; 1168.167;  141.278; 1123.056
241.651; 1234.167;  132.278; 1111.056
242.248; 1393.167;  197.278; 1331.056
242.846; 1135.167;  136.278; 1061.056
243.444; 1187.167;  142.278; 1124.056
244.041; 1349.167;  103.278; 1171.056
244.639; 1320.167;  181.278; 1209.056
245.236; 1198.167;  119.278; 1107.056
245.834; 1047.167;  137.278;  992.056
246.432; 1225.167;  166.278; 1157.056
247.029; 1350.167;  180.278; 1297.056
247.626; 1353.167;  163.278; 1244.056
248.224; 1352.167;  200.278; 1267.056
248.821; 1227.167;  117.278; 1137.056
249.419; 1248.167;  162.278; 1204.056
250.016; 1140.167;  151.278; 1032.056
250.613; 1296.167;  168.278; 1161.056
251.211; 1405.167;  165.278; 1319.056
251.808; 1213.167;  145.278; 1132.056
252.405; 1363.167;  164.278; 1275.056
253.002; 1447.167;  174.278; 1389.056
253.600; 1327.167;  169.278; 1268.056
254.197; 1278.167;  161.278; 1197.056
254.794; 1300.167;  171.278; 1201.056
255.391; 1231.167;  175.278; 1199.056
255.988; 1157.167;  116.278; 1096.056
256.585; 1243.167;  163.278; 1157.056
257.182; 1378.167;  159.278; 1234.056
257.779; 1153.167;  152.278; 1066.056
258.376; 1235.167;  164.278; 1173.056
258.973; 1240.167;  175.278; 1145.056
259.570; 1311.167;   94.278; 1234.056
260.167; 1438.167;  162.278; 1336.056
260.763; 1260.167;  159.278; 1178.056
261.360; 1335.167;  159.278; 1240.056
261.957; 1659.167;  196.278; 1590.056
262.554; 1543.167;  200.278; 1490.056
263.150; 1478.167;  146.278; 1377.056
263.747; 1365.167;  156.278; 1294.056
264.344; 1235.167;  158.278; 1165.056
264.940; 1259.167;  163.278; 1186.056
265.537; 1289.167;  177.278; 1192.056
266.134; 1492.167;  194.278; 1380.056
266.730; 1304.167;  157.278; 1214.056
267.327; 1375.167;  176.278; 1320.056
267.923; 1285.167;  164.278; 1210.056
268.519; 1226.167;  179.278; 1121.056
269.116; 1305.167;  168.278; 1235.056
269.712; 1113.167;  113.278; 1038.056
270.309; 1167.167;  109.278; 1059.056
270.905; 1386.167;  177.278; 1272.056
271.501; 1350.167;  194.278; 1254.056
272.098; 1360.167;  165.278; 1233.056
272.694; 1448.167;  219.278; 1366.056
273.290; 1263.167;  147.278; 1163.056
273.886; 1298.167;  117.278; 1245.056
274.482; 1274.167;  156.278; 1168.056
275.078; 1519.167;  211.278; 1404.056
275.675; 1285.167;  174.278; 1206.056
276.271; 1155.167;  140.278; 1079.056
276.867; 1200.167;  165.278; 1086.056
277.463; 1330.167;  167.278; 1289.056
278.059; 1379.167;  148.278; 1281.056
278.655; 1186.167;  172.278; 1112.056
279.250; 1257.167;  165.278; 1187.056
279.846; 1069.167;  143.278;  982.056
280.442; 1176.167;  140.278; 1046.056
281.038; 1439.167;  183.278; 1384.056
281.634; 1208.167;  131.278; 1149.056
282.230; 1236.167;  181.278; 1181.056
282.825; 1218.167;  160.278; 1158.056
283.421; 1079.167;  127.278; 1004.056
284.017; 1145.167;   92.278; 1017.056
284.612; 1209.167;  134.278; 1150.056
285.208; 1253.167;  117.278; 1132.056
285.804; 1400.167;  191.278; 1264.056
286.399; 1127.167;  144.278; 1063.056
286.995; 1220.167;  145.278; 1098.056
287.590; 1328.167;  178.278; 1212.056
288.186; 1278.167;  105.278; 1157.056
288.781; 1353.167;  166.278; 1261.056
289.376; 1163.167;  137.278; 1101.056
289.972; 1197.167;  155.278; 1148.056
290.567; 1237.167;  160.278; 1125.056
291.162; 1350.167;  177.278; 1304.056
291.758; 1292.167;  148.278; 1184.056
292.353; 1157.167;  111.278; 1100.056
292.948; 1200.167;  178.278; 1125.056
293.543; 1336.167;  209.278; 1276.056
294.139; 1264.167;  191.278; 1225.056
294.734; 1219.167;  153.278; 1153.056
295.329; 1366.167;  188.278; 1313.056
295.924; 1199.167;  134.278; 1184.056
296.519; 1145.167;  145.278; 1099.056
297.114; 1335.167;  152.278; 1282.056
297.709; 1389.167;  183.278; 1326.056
298.304; 1232.167;  147.278; 1138.056
298.899; 1227.167;  126.278; 1167.056
299.494; 1264.167;  139.278; 1195.056
300.089; 1455.167;  197.278; 1356.056
300.683; 1206.167;  152.278; 1158.056
301.278; 1227.167;  188.278; 1208.056
301.873; 1515.167;  182.278; 1361.056
302.468; 1481.167;  190.278; 1459.056
303.062; 1245.167;  147.278; 1203.056
303.657; 1378.167;  107.278; 1250.056
304.252; 1423.167;  181.278; 1351.056
304.846; 1227.167;  126.278; 1230.056
305.441; 1610.167;  198.278; 1475.056
306.036; 1420.167;  202.278; 1375.056
306.630; 1386.167;  152.278; 1338.056
307.225; 1399.167;  213.278; 1359.056
307.819; 1397.167;  134.278; 1282.056
308.413; 1184.167;  152.278; 1155.056
309.008; 1157.167;  132.278; 1011.056
309.602; 1408.167;  181.278; 1364.056
310.197; 1547.167;  189.278; 1445.056
310.791; 1220.167;  132.278; 1180.056
311.385; 1151.167;  127.278; 1103.056
311.979; 1158.167;  155.278; 1119.056
312.574; 1239.167;  161.278; 1103.056
313.168; 1329.167;  163.278; 1156.056
313.762; 1151.167;  111.278; 1071.056
314.356; 1361.167;  190.278; 1301.056
314.950; 1578.167;  190.278; 1519.056
315.544; 1433.167;  179.278; 1303.056
316.138; 1384.167;  182.278; 1321.056
316.732; 1375.167;  180.278; 1245.056
317.326; 1288.167;  138.278; 1194.056
317.920; 1160.167;  160.278; 1123.056
318.514; 1358.167;  168.278; 1287.056
319.108; 1153.167;  102.278; 1150.056
319.702; 1347.167;  191.278; 1306.056
320.296; 1339.167;  158.278; 1226.056
320.890; 1347.167;  157.278; 1263.056
321.483; 1352.167;  157.278; 1255.056
322.077; 1148.167;  140.278; 1062.056
322.671; 1267.167;  162.278; 1192.056
323.264; 1069.167;  148.278; 1020.056
323.858; 1167.167;  113.278; 1037.056
324.452; 1297.167;  127.278; 1209.056
325.045; 1179.167;  155.278; 1096.056
325.639; 1189.167;  148.278; 1125.056
326.232; 1160.167;  157.278; 1117.056
326.826; 1567.167;  209.278; 1466.056
327.419; 1080.167;  106.278; 1032.056
328.013; 1193.167;  128.278; 1161.056
328.606; 1204.167;  165.278; 1182.056
329.200; 1371.167;  181.278; 1270.056
329.793; 1139.167;  147.278; 1060.056
330.386; 1411.167;  180.278; 1355.056
330.979; 1474.167;  207.278; 1396.056
331.573; 1455.167;  173.278; 1376.056
332.166; 1323.167;  181.278; 1214.056
332.759; 1297.167;  166.278; 1239.056
333.352; 1315.167;  147.278; 1251.056
333.945; 1364.167;  170.278; 1295.056
334.538; 1265.167;  159.278; 1147.056
335.131; 1221.167;  147.278; 1130.056
335.724; 1418.167;  174.278; 1353.056
336.317; 1271.167;  172.278; 1241.056
336.910; 1453.167;  204.278; 1329.056
337.503; 1392.167;  140.278; 1271.056
338.096; 1488.167;  210.278; 1346.056
338.689; 1284.167;  132.278; 1170.056
339.282; 1223.167;  167.278; 1126.056
339.875; 1290.167;  171.278; 1224.056
340.468; 1287.167;  187.278; 1267.056
341.060; 1263.167;  160.278; 1186.056
341.653; 1365.167;  153.278; 1274.056
342.246; 1305.167;  150.278; 1280.056
342.838; 1236.167;  182.278; 1155.056
343.431; 1357.167;  188.278; 1259.056
344.024; 1359.167;  191.278; 1304.056
344.616; 1234.167;  167.278; 1154.056
345.209; 1346.167;  192.278; 1279.056
345.801; 1085.167;  128.278; 1029.056
346.394; 1394.167;  163.278; 1321.056
346.986; 1281.167;  158.278; 1199.056
347.578; 1134.167;  152.278; 1090.056
348.171; 1292.167;  161.278; 1203.056
348.763; 1212.167;  153.278; 1100.056
349.355; 1176.167;  134.278; 1176.056
349.948; 1754.167;  210.278; 1653.056
350.540; 1432.167;  187.278; 1400.056
351.132; 1361.167;  195.278; 1297.056
351.724; 1251.167;  133.278; 1161.056
352.316; 1285.167;  166.278; 1171.056
352.909; 1420.167;  136.278; 1360.056
353.501; 1273.167;  134.278; 1243.056
354.093; 1306.167;  154.278; 1290.056
354.685; 1357.167;  167.278; 1252.056
355.277; 1164.167;  132.278; 1101.056
355.869; 1433.167;  191.278; 1303.056
356.461; 1338.167;  140.278; 1287.056
357.052; 1240.167;  164.278; 1142.056
357.644; 1424.167;  184.278; 1351.056
358.236; 1185.167;  149.278; 1138.056
358.828; 1124.167;  134.278; 1059.056
359.420; 1422.167;  209.278; 1309.056
360.011; 1561.167;  187.278; 1474.056
360.603; 1809.167;  249.278; 1681.056
361.195; 1344.167;  195.278; 1288.056
361.786; 1419.167;  190.278; 1313.056
362.378; 1136.167;  135.278; 1116.056
362.970; 1136.167;  130.278; 1044.056
363.561; 1174.167;  107.278; 1062.056
364.153; 1251.167;  140.278; 1155.056
364.744; 1251.167;  166.278; 1150.056
365.336; 1195.167;  132.278; 1169.056
365.927; 1139.167;  150.278; 1167.056
366.518; 1420.167;  178.278; 1256.056
367.110; 1485.167;  181.278; 1415.056
367.701; 1195.167;  150.278; 1078.056
368.292; 1387.167;  187.278; 1356.056
368.884; 1233.167;  152.278; 1143.056
369.475; 1521.167;  210.278; 1441.056
370.066; 1290.167;  173.278; 1209.056
370.657; 1439.167;  158.278; 1374.056
371.248; 1173.167;  168.278; 1063.056
371.840; 1298.167;  147.278; 1211.056
372.431; 1252.167;  160.278; 1168.056
373.022; 1202.167;  163.278; 1094.056
373.613; 1415.167;  182.278; 1332.056
374.204; 1392.167;  159.278; 1299.056
374.795; 1148.167;  124.278; 1089.056
375.385; 1495.167;  195.278; 1371.056
375.976; 1442.167;  180.278; 1362.056
376.567; 1275.167;  188.278; 1221.056
377.158; 1341.167;  190.278; 1245.056
377.749; 1197.167;  153.278; 1208.056
378.339; 1243.167;  186.278; 1217.056
378.930; 1294.167;  171.278; 1198.056
379.521; 1553.167;  217.278; 1412.056
380.112; 1336.167;  184.278; 1304.056
380.702; 1378.167;  141.278; 1295.056
381.293; 1253.167;  124.278; 1218.056
381.883; 1434.167;  176.278; 1330.056
382.474; 1504.167;  177.278; 1405.056
383.064; 1287.167;  163.278; 1159.056
383.655; 1372.167;  191.278; 1387.056
384.245; 1382.167;  163.278; 1288.056
384.836; 1454.167;  183.278; 1384.056
385.426; 1337.167;  159.278; 1248.056
386.016; 1277.167;  138.278; 1203.056
386.607; 1455.167;  184.278; 1345.056
387.197; 1286.167;  166.278; 1233.056
387.787; 1204.167;  158.278; 1077.056
388.377; 1146.167;  100.278; 1113.056
388.967; 1328.167;  178.278; 1191.056
389.558; 1269.167;  105.278; 1178.056
390.148; 1360.167;  188.278; 1264.056
390.738; 1233.167;  172.278; 1172.056
391.328; 1194.167;  131.278; 1102.056
391.918; 1421.167;  144.278; 1309.056
392.508; 1434.167;  165.278; 1334.056
393.098; 1173.167;  131.278; 1095.056
393.688; 1298.167;  183.278; 1203.056
394.277; 1170.167;  116.278; 1100.056
394.867; 1312.167;  165.278; 1216.056
395.457; 1300.167;  113.278; 1236.056
396.047; 1492.167;  182.278; 1419.056
396.637; 1472.167;  174.278; 1403.056
397.226; 1400.167;  179.278; 1271.056
397.816; 1359.167;  145.278; 1269.056
398.406; 1259.167;  149.278; 1165.056
398.995; 1413.167;  156.278; 1297.056
399.585; 1343.167;  178.278; 1259.056
400.174; 1249.167;  168.278; 1223.056
400.764; 1299.167;  181.278; 1244.056
401.353; 1211.167;  153.278; 1130.056
401.943; 1176.167;  161.278; 1144.056
402.532; 1303.167;  106.278; 1201.056
403.122; 1268.167;  157.278; 1127.056
403.711; 1211.167;  163.278; 1129.056
404.300; 1301.167;  171.278; 1226.056
404.889; 1207.167;  125.278; 1103.056
405.479; 1213.167;  140.278; 1168.056
406.068; 1309.167;  153.278; 1235.056
406.657; 1617.167;  214.278; 1492.056
407.246; 1270.167;  192.278; 1192.056
407.835; 1307.167;  163.278; 1205.056
408.424; 1428.167;  167.278; 1353.056
409.014; 1272.167;  159.278; 1221.056
409.603; 1358.167;  162.278; 1225.056
410.192; 1302.167;  159.278; 1245.056
410.781; 1361.167;  170.278; 1260.056
411.369; 1073.167;   90.278;  996.056
411.958; 1087.167;  134.278;  964.056
412.547; 1134.167;  142.278; 1104.056
413.136; 1224.167;  140.278; 1076.056
413.725; 1260.167;  168.278; 1155.056
414.314; 1378.167;  158.278; 1343.056
414.902; 1299.167;  160.278; 1157.056
415.491; 1266.167;   98.278; 1175.056
416.080; 1329.167;  185.278; 1243.056
416.668; 1209.167;   91.278; 1079.056
417.257; 1300.167;  168.278; 1241.056
417.845; 1217.167;  105.278; 1146.056
418.434; 1232.167;  162.278; 1099.056
419.022; 1406.167;  171.278; 1351.056
419.611; 1364.167;  166.278; 1269.056
420.199; 1361.167;  133.278; 1178.056
420.788; 1356.167;  111.278; 1212.056
421.376; 1455.167;  172.278; 1363.056
421.964; 1180.167;   98.278; 1063.056
422.553; 1503.167;  196.278; 1382.056
423.141; 1232.167;  161.278; 1138.056
423.729; 1379.167;  148.278; 1167.056
424.317; 1397.167;  133.278; 1255.056
424.905; 1319.167;  188.278; 1195.056
425.494; 1253.167;  145.278; 1102.056
426.082; 1275.167;  155.278; 1094.056
426.670; 1389.167;  171.278; 1225.056
427.258; 1554.167;  157.278; 1301.056
427.846; 1469.167;  177.278; 1279.056
428.434; 1456.167;  151.278; 1226.056
429.022; 1385.167;  146.278; 1142.056
429.610; 1480.167;  174.278; 1180.056
430.197; 1608.167;  187.278; 1300.056
430.785; 1666.167;  153.278; 1299.056
431.373; 1535.167;  156.278; 1174.056
431.961; 1668.167;  166.278; 1324.056
432.549; 1643.167;  178.278; 1281.056
433.136; 1699.167;  178.278; 1219.056
433.724; 1672.167;  145.278; 1301.056
434.311; 1681.167;  139.278; 1240.056
434.899; 1895.167;  162.278; 1331.056
435.487; 1625.167;  150.278; 1112.056
436.074; 2121.167;  196.278; 1467.056
436.662; 2041.167;  215.278; 1358.056
437.249; 1944.167;  172.278; 1211.056
437.837; 1865.167;  116.278; 1051.056
438.424; 2056.167;  156.278; 1239.056
439.011; 2128.167;  171.278; 1211.056
439.599; 2156.167;  166.278; 1120.056
440.186; 2261.167;  161.278; 1169.056
440.773; 2444.167;  131.278; 1251.056
441.360; 2463.167;  129.278; 1137.056
441.948; 2709.167;  170.278; 1337.056
442.535; 2683.167;  154.278; 1245.056
443.122; 2734.167;  165.278; 1252.056
443.709; 2853.167;  182.278; 1259.056
444.296; 2813.167;  143.278; 1204.056
444.883; 3106.167;  172.278; 1310.056
445.470; 2959.167;  130.278; 1216.056
446.057; 3038.167;  163.278; 1179.056
446.644; 3070.167;  146.278; 1219.056
447.231; 3388.167;  200.278; 1423.056
447.818; 3350.167;  177.278; 1410.056
448.404; 3187.167;  130.278; 1227.056
448.991; 3786.167;  190.278; 1757.056
449.578; 3212.167;  140.278; 1267.056
450.165; 3251.167;  155.278; 1277.056
450.751; 3150.167;  101.278; 1270.056
451.338; 3227.167;  178.278; 1411.056
451.925; 2970.167;  146.278; 1182.056
452.511; 2923.167;  167.278; 1281.056
453.098; 2807.167;  176.278; 1256.056
453.684; 3094.167;  209.278; 1658.056
454.271; 2741.167;  190.278; 1431.056
454.857; 2510.167;  178.278; 1274.056
455.443; 2357.167;  120.278; 1168.056
456.030; 2359.167;   93.278; 1199.056
456.616; 2042.167;  125.278; 1028.056
457.202; 2192.167;  156.278; 1147.056
457.789; 2122.167;  132.278; 1156.056
458.375; 2116.167;  161.278; 1161.056
458.961; 2097.167;  145.278; 1185.056
459.547; 2162.167;  167.278; 1239.056
460.133; 2005.167;  151.278; 1141.056
460.720; 2114.167;  163.278; 1263.056
461.306; 2119.167;  165.278; 1322.056
461.892; 2700.167;  247.278; 1908.056
462.478; 2132.167;  164.278; 1363.056
463.064; 2074.167;  196.278; 1324.056
463.650; 2106.167;  190.278; 1461.056
464.235; 2021.167;  163.278; 1318.056
464.821; 1923.167;  160.278; 1209.056
465.407; 1739.167;  123.278; 1085.056
465.993; 1754.167;  131.278; 1249.056
466.579; 1910.167;  174.278; 1342.056
467.164; 1732.167;  156.278; 1224.056
467.750; 1715.167;  175.278; 1236.056
468.336; 1565.167;  148.278; 1096.056
468.921; 1540.167;  146.278; 1098.056
469.507; 1834.167;  158.278; 1368.056
470.092; 2047.167;  201.278; 1605.056
470.678; 1491.167;  124.278; 1161.056
471.263; 1624.167;  145.278; 1211.056
471.849; 1663.167;  152.278; 1352.056
472.434; 1578.167;  162.278; 1213.056
473.020; 1435.167;   79.278; 1118.056
473.605; 1441.167;  155.278; 1128.056
474.190; 1519.167;  147.278; 1211.056
474.776; 1555.167;  169.278; 1195.056
475.361; 1536.167;  150.278; 1246.056
475.946; 1647.167;  176.278; 1364.056
476.531; 1488.167;  128.278; 1271.056
477.116; 1555.167;  162.278; 1255.056
477.701; 1563.167;  177.278; 1371.056
478.287; 1435.167;  144.278; 1146.056
478.872; 1485.167;  169.278; 1257.056
479.457; 1527.167;  199.278; 1273.056
480.042; 1365.167;  134.278; 1139.056
480.626; 1535.167;  205.278; 1255.056
481.211; 1593.167;  175.278; 1372.056
481.796; 1446.167;  155.278; 1216.056
482.381; 2167.167;  280.278; 1962.056
482.966; 1744.167;  216.278; 1467.056
483.551; 1485.167;  143.278; 1297.056
484.135; 1500.167;  182.278; 1273.056
484.720; 1278.167;  144.278; 1139.056
485.305; 1251.167;  167.278; 1126.056
485.889; 1625.167;  199.278; 1403.056
486.474; 1164.167;  146.278; 1058.056
487.058; 1291.167;   96.278; 1192.056
487.643; 1570.167;  211.278; 1371.056
488.227; 1315.167;  148.278; 1192.056
488.812; 1334.167;  102.278; 1157.056
489.396; 1477.167;  188.278; 1362.056
489.981; 2061.167;  217.278; 1835.056
490.565; 1318.167;  112.278; 1209.056
491.149; 1253.167;  173.278; 1091.056
491.733; 1356.167;  162.278; 1224.056
492.318; 1314.167;  135.278; 1120.056
492.902; 1240.167;  163.278; 1123.056
493.486; 1180.167;  133.278; 1040.056
494.070; 1228.167;   97.278; 1131.056
494.654; 1457.167;  176.278; 1289.056
495.238; 1254.167;  164.278; 1127.056
495.822; 1391.167;  186.278; 1241.056
496.406; 1425.167;  153.278; 1291.056
496.990; 1237.167;  135.278; 1117.056
497.574; 1372.167;  125.278; 1266.056
498.158; 1284.167;  129.278; 1145.056
498.742; 1271.167;  148.278; 1156.056
499.326; 1196.167;  143.278; 1071.056
499.909; 1314.167;  166.278; 1176.056
500.493; 1393.167;  133.278; 1238.056
501.077; 1409.167;  131.278; 1252.056
501.661; 1447.167;  159.278; 1247.056
502.244; 1405.167;  174.278; 1207.056
502.828; 1312.167;  168.278; 1169.056
503.411; 1366.167;  135.278; 1206.056
503.995; 1754.167;  228.278; 1607.056
504.578; 1547.167;  158.278; 1401.056
505.162; 1298.167;  162.278; 1127.056
505.745; 1415.167;  123.278; 1250.056
506.329; 1390.167;  174.278; 1222.056
506.912; 1632.167;  199.278; 1445.056
507.495; 1467.167;  154.278; 1276.056
508.079; 1544.167;  160.278; 1309.056
508.662; 1409.167;  162.278; 1280.056
509.245; 1366.167;  140.278; 1196.056
509.828; 1481.167;  170.278; 1272.056
510.411; 1265.167;  122.278; 1089.056
510.994; 1259.167;  125.278; 1120.056
511.578; 1704.167;  182.278; 1499.056
512.161; 1282.167;  139.278; 1035.056
512.744; 1568.167;  170.278; 1363.056
513.327; 1360.167;  148.278; 1148.056
513.909; 1539.167;  169.278; 1317.056
514.492; 1479.167;  148.278; 1257.056
515.075; 1466.167;  170.278; 1263.056
515.658; 1343.167;  150.278; 1143.056
516.241; 1483.167;  165.278; 1251.056
516.824; 1413.167;  123.278; 1174.056
517.406; 1497.167;  135.278; 1266.056
517.989; 1450.167;  168.278; 1219.056
518.572; 1603.167;  170.278; 1315.056
519.154; 1603.167;  217.278; 1421.056
519.737; 1468.167;  132.278; 1268.056
520.319; 1386.167;  164.278; 1196.056
520.902; 1648.167;  183.278; 1405.056
521.484; 1455.167;  180.278; 1199.056
522.067; 1551.167;  143.278; 1274.056
522.649; 1411.167;  155.278; 1163.056
523.231; 1494.167;  125.278; 1223.056
523.814; 1567.167;  212.278; 1366.056
524.396; 1647.167;  181.278; 1437.056
524.978; 1497.167;  172.278; 1264.056
525.560; 1365.167;  118.278; 1173.056
526.143; 1450.167;  175.278; 1249.056
526.725; 1543.167;  191.278; 1328.056
527.307; 1469.167;  175.278; 1276.056
527.889; 1444.167;  179.278; 1289.056
528.471; 1274.167;  146.278; 1048.056
529.053; 1490.167;  108.278; 1256.056
529.635; 1521.167;  180.278; 1247.056
530.217; 1592.167;  168.278; 1347.056
530.799; 1607.167;  188.278; 1398.056
531.381; 1496.167;  192.278; 1295.056
531.962; 1424.167;  159.278; 1205.056
532.544; 1572.167;  165.278; 1333.056
533.126; 1507.167;  171.278; 1277.056
533.708; 1497.167;  171.278; 1306.056
534.289; 1569.167;  177.278; 1377.056
534.871; 1475.167;  162.278; 1284.056
535.453; 1553.167;  185.278; 1368.056
536.034; 1483.167;  156.278; 1402.056
536.616; 1254.167;  162.278; 1110.056
537.197; 1426.167;  167.278; 1296.056
537.779; 1589.167;  164.278; 1409.056
538.360; 1524.167;  179.278; 1369.056
538.941; 1355.167;  151.278; 1198.056
539.523; 1332.167;  118.278; 1158.056
540.104; 1818.167;  228.278; 1555.056
540.685; 1308.167;  145.278; 1130.056
541.267; 1287.167;  156.278; 1162.056
541.848; 1453.167;  158.278; 1250.056
542.429; 1651.167;  174.278; 1456.056
543.010; 1348.167;  119.278; 1173.056
543.591; 1591.167;  189.278; 1376.056
544.172; 1611.167;  153.278; 1414.056
544.753; 1682.167;  190.278; 1484.056
545.334; 6049.167;  172.278; 6117.056
545.915; 1381.167;  150.278; 1216.056
546.496; 1527.167;  153.278; 1325.056
547.077; 1399.167;  197.278; 1218.056
547.658; 1494.167;  200.278; 1355.056
548.239; 1534.167;  183.278; 1392.056
548.819; 1684.167;  196.278; 1521.056
549.400; 1367.167;  169.278; 1208.056
549.981; 1597.167;  167.278; 1410.056
550.561; 1268.167;  133.278; 1133.056
551.142; 1344.167;  156.278; 1165.056
551.723; 1479.167;  181.278; 1376.056
552.303; 1359.167;  155.278; 1193.056
552.884; 1500.167;  194.278; 1320.056
553.464; 1585.167;  175.278; 1462.056
554.045; 1621.167;  223.278; 1494.056
554.625; 1261.167;  151.278; 1171.056
555.205; 1453.167;  174.278; 1264.056
555.786; 1413.167;  142.278; 1305.056
556.366; 1368.167;  146.278; 1212.056
556.946; 1598.167;  142.278; 1456.056
557.526; 1500.167;  200.278; 1335.056
558.107; 1544.167;  156.278; 1383.056
558.687; 1624.167;  210.278; 1508.056
559.267; 1439.167;  154.278; 1283.056
559.847; 1516.167;  172.278; 1361.056
560.427; 1537.167;  107.278; 1401.056
561.007; 1543.167;  183.278; 1411.056
561.587; 1281.167;  140.278; 1217.056
562.167; 1543.167;  220.278; 1409.056
562.747; 1537.167;  169.278; 1404.056
563.327; 1354.167;  148.278; 1222.056
563.906; 1397.167;   72.278; 1191.056
564.486; 1520.167;  203.278; 1344.056
565.066; 1245.167;  119.278; 1138.056
565.646; 1426.167;  167.278; 1259.056
566.225; 1192.167;  131.278; 1136.056
566.805; 1496.167;  193.278; 1365.056
567.384; 1403.167;  128.278; 1301.056
567.964; 1538.167;  184.278; 1384.056
568.544; 1358.167;  172.278; 1197.056
569.123; 1375.167;  128.278; 1233.056
569.702; 1305.167;  133.278; 1238.056
570.282; 1515.167;  135.278; 1348.056
570.861; 1342.167;  127.278; 1229.056
571.441; 1412.167;   97.278; 1274.056
572.020; 1461.167;  159.278; 1290.056
572.599; 1422.167;  181.278; 1280.056
573.178; 1635.167;  184.278; 1511.056
573.758; 1338.167;  168.278; 1246.056
574.337; 1639.167;  177.278; 1514.056
574.916; 1184.167;  150.278; 1074.056
575.495; 1416.167;  147.278; 1209.056
576.074; 1301.167;  165.278; 1205.056
576.653; 1944.167;  245.278; 1764.056
577.232; 1463.167;  163.278; 1374.056
577.811; 1433.167;  110.278; 1266.056
578.390; 1329.167;  110.278; 1158.056
578.969; 1238.167;  141.278; 1046.056
579.547; 1443.167;  147.278; 1297.056
580.126; 1547.167;  170.278; 1360.056
580.705; 1440.167;  154.278; 1266.056
581.284; 1672.167;  152.278; 1442.056
581.862; 1474.167;  161.278; 1250.056
582.441; 1509.167;  164.278; 1212.056
583.019; 1551.167;  162.278; 1167.056
583.598; 1659.167;  178.278; 1374.056
584.177; 1643.167;  157.278; 1378.056
584.755; 1520.167;  149.278; 1212.056
585.333; 1590.167;  199.278; 1271.056
585.912; 1653.167;  152.278; 1291.056
586.490; 1777.167;  190.278; 1378.056
587.069; 1631.167;  161.278; 1196.056
587.647; 1617.167;  131.278; 1159.056
588.225; 1684.167;  142.278; 1197.056
588.803; 1660.167;  149.278; 1137.056
589.381; 1846.167;  162.278; 1252.056
589.960; 1985.167;  169.278; 1353.056
590.538; 1786.167;  122.278; 1153.056
591.116; 1855.167;  158.278; 1144.056
591.694; 2075.167;  175.278; 1386.056
592.272; 1988.167;  168.278; 1273.056
592.850; 2188.167;  161.278; 1412.056
593.428; 2164.167;  174.278; 1370.056
594.006; 1945.167;  134.278; 1157.056
594.583; 2411.167;  194.278; 1500.056
595.161; 2543.167;  199.278; 1652.056
595.739; 2377.167;  191.278; 1443.056
596.317; 2259.167;  178.278; 1278.056
596.894; 2432.167;  188.278; 1384.056
597.472; 2705.167;  174.278; 1381.056
598.050; 2727.167;  144.278; 1335.056
598.627; 2516.167;  164.278; 1231.056
599.205; 2547.167;  170.278; 1272.056
599.782; 2255.167;  135.278; 1005.056
600.360; 2550.167;  170.278; 1278.056
600.937; 2651.167;  177.278; 1313.056
601.515; 2617.167;  153.278; 1307.056
602.092; 2689.167;  124.278; 1281.056
602.669; 2551.167;  162.278; 1170.056
603.247; 2484.167;  134.278; 1066.056
603.824; 2787.167;  149.278; 1190.056
604.401; 2828.167;  123.278; 1305.056
604.978; 2812.167;  151.278; 1194.056
605.555; 2997.167;  162.278; 1410.056
606.132; 2821.167;  176.278; 1186.056
606.709; 3151.167;  175.278; 1310.056
607.286; 3709.167;  174.278; 1322.056
607.863; 5281.167;  132.278; 1280.056
608.440; 7162.167;  156.278; 1240.056
609.017; 6906.167;   93.278; 1220.056
609.594; 5325.167;  198.278; 1302.056
610.171; 3958.167;  156.278; 1176.056
610.748; 3578.167;  155.278; 1135.056
611.324; 3902.167;  177.278; 1213.056
611.901; 5756.167;  181.278; 1291.056
612.478;17734.167; 1314.278; 8504.056
613.054;13472.167;  187.278; 1279.056
613.631;12558.167;   94.278; 1099.056
614.208; 9812.167;  167.278; 1216.056
614.784; 7221.167;  183.278; 1317.056
615.361; 5398.167;  154.278; 1277.056
615.937; 4607.167;  178.278; 1395.056
616.513; 4252.167;  164.278; 1245.056
617.090; 4201.167;  204.278; 1385.056
617.666; 4062.167;  164.278; 1282.056
618.242; 3876.167;  102.278; 1206.056
618.819; 4231.167;  170.278; 1465.056
619.395; 4081.167;  165.278; 1426.056
619.971; 3866.167;  189.278; 1342.056
620.547; 3646.167;  129.278; 1076.056
621.123; 3971.167;  198.278; 1368.056
621.699; 4029.167;  190.278; 1452.056
622.275; 3782.167;  119.278; 1300.056
622.851; 3842.167;  173.278; 1298.056
623.427; 4006.167;  175.278; 1325.056
624.003; 4097.167;  166.278; 1365.056
624.579; 4068.167;  148.278; 1281.056
625.155; 4262.167;  208.278; 1477.056
625.731; 4152.167;  155.278; 1268.056
626.306; 4020.167;  154.278; 1150.056
626.882; 4660.167;  224.278; 1770.056
627.458; 4123.167;  157.278; 1092.056
628.033; 4774.167;  181.278; 1404.056
628.609; 5485.167;  168.278; 1305.056
629.185; 7467.167;  154.278; 1318.056
629.760;12313.167;  191.278; 1354.056
630.336;19167.167;  143.278; 1131.056
630.911;22286.167;  167.278; 1217.056
631.486;19160.167;  179.278; 1390.056
632.062;14157.167;  156.278; 1218.056
632.637;11096.167;  138.278; 1238.056
633.212;10439.167;  150.278; 1183.056
633.788;11612.167;  166.278; 1216.056
634.363;15425.167;  174.278; 1316.056
634.938;18462.167;  151.278; 1366.056
635.513;16471.167;  198.278; 1444.056
636.088;12005.167;  156.278; 1551.056
636.663; 8457.167;  196.278; 1355.056
637.238; 6984.167;  156.278; 1161.056
637.813; 6558.167;  154.278; 1054.056
638.388; 5859.167;  152.278; 1267.056
638.963; 4482.167;  131.278; 1017.056
639.538; 3608.167;   89.278; 1029.056
640.113; 3537.167;  179.278; 1394.056
640.688; 3156.167;  214.278; 1420.056
641.262; 2767.167;  169.278; 1257.056
641.837; 2406.167;  146.278; 1156.056
642.412; 2413.167;  171.278; 1224.056
642.986; 2472.167;  150.278; 1280.056
643.561; 2287.167;  128.278; 1141.056
644.136; 2339.167;  173.278; 1250.056
644.710; 2252.167;  146.278; 1159.056
645.285; 2384.167;  160.278; 1173.056
645.859; 2829.167;  172.278; 1287.056
646.433; 3819.167;  131.278; 1216.056
647.008; 5315.167;  153.278; 1128.056
647.582; 5731.167;  140.278; 1263.056
648.156; 4601.167;  161.278; 1066.056
648.731; 3486.167;  167.278; 1089.056
649.305; 3181.167;  158.278; 1207.056
649.879; 3141.167;  151.278; 1351.056
650.453; 3373.167;  251.278; 1359.056
651.027; 3020.167;  185.278; 1206.056
651.601; 2868.167;  154.278; 1194.056
652.175; 2696.167;  134.278; 1193.056
652.749; 2440.167;  150.278; 1191.056
653.323; 2392.167;  152.278; 1299.056
653.897; 4149.167;  397.278; 3042.056
654.471; 2169.167;  140.278; 1296.056
655.045; 2035.167;  144.278; 1142.056
655.619; 1825.167;  146.278; 1095.056
656.192; 2007.167;  123.278; 1099.056
656.766; 2012.167;  111.278; 1200.056
657.340; 1770.167;  153.278; 1049.056
657.913; 1833.167;  165.278; 1242.056
658.487; 1768.167;  172.278; 1131.056
659.060; 1817.167;  176.278; 1269.056
659.634; 1825.167;  180.278; 1223.056
660.207; 1940.167;  149.278; 1310.056
660.781; 1796.167;  171.278; 1176.056
661.354; 1723.167;  143.278; 1183.056
661.927; 1944.167;  179.278; 1434.056
662.501; 1650.167;  171.278; 1255.056
663.074; 1401.167;  157.278; 1088.056
663.647; 1539.167;  138.278; 1179.056
664.220; 1635.167;  176.278; 1279.056
664.794; 1543.167;  144.278; 1224.056
665.367; 1822.167;  210.278; 1471.056
665.940; 1610.167;  167.278; 1339.056
666.513; 1583.167;  142.278; 1253.056
667.086; 1659.167;  143.278; 1317.056
667.659; 1393.167;  181.278; 1067.056
668.232; 1710.167;  138.278; 1339.056
668.804; 1624.167;  174.278; 1193.056
669.377; 1625.167;  154.278; 1172.056
669.950; 1825.167;  198.278; 1376.056
670.523; 1788.167;  155.278; 1331.056
671.096; 1578.167;  154.278; 1197.056
671.668; 1401.167;  160.278; 1126.056
672.241; 1614.167;  116.278; 1243.056
672.813; 1562.167;  144.278; 1287.056
673.386; 1395.167;  170.278; 1163.056
673.959; 1552.167;  150.278; 1282.056
674.531; 1402.167;  151.278; 1194.056
675.103; 1452.167;  165.278; 1185.056
675.676; 1424.167;  135.278; 1157.056
676.248; 1321.167;  136.278; 1035.056
676.821; 1371.167;  166.278; 1210.056
677.393; 1488.167;  104.278; 1234.056
677.965; 1515.167;  185.278; 1318.056
678.537; 1543.167;  186.278; 1290.056
679.109; 1286.167;  143.278; 1087.056
679.682; 1327.167;  152.278; 1080.056
680.254; 1349.167;  171.278; 1166.056
680.826; 1191.167;   77.278; 1004.056
681.398; 1485.167;  180.278; 1238.056
681.970; 1390.167;  138.278; 1181.056
682.542; 1385.167;  157.278; 1221.056
683.113; 1490.167;  176.278; 1324.056
683.685; 1321.167;  117.278; 1115.056
684.257; 1442.167;  143.278; 1256.056
684.829; 1400.167;  154.278; 1174.056
685.401; 1282.167;  159.278; 1100.056
685.972; 1320.167;  143.278; 1155.056
686.544; 1448.167;  147.278; 1251.056
687.115; 1454.167;  162.278; 1295.056
687.687; 1385.167;  174.278; 1188.056
688.259; 1390.167;  144.278; 1225.056
688.830; 1413.167;  170.278; 1195.056
689.401; 1309.167;  146.278; 1149.056
689.973; 1738.167;  222.278; 1541.056
690.544; 1428.167;  168.278; 1267.056
691.116; 1538.167;  121.278; 1310.056
691.687; 1300.167;  166.278; 1107.056
692.258; 1402.167;  156.278; 1288.056
692.829; 1296.167;  132.278; 1170.056
693.400; 1339.167;  175.278; 1209.056
693.972; 1252.167;  145.278; 1168.056
694.543; 1285.167;  120.278; 1133.056
695.114; 1692.167;  197.278; 1547.056
695.685; 1257.167;  117.278; 1072.056
696.256; 1261.167;  150.278; 1072.056
696.827; 1305.167;  143.278; 1155.056
697.397; 1244.167;  163.278; 1144.056
697.968; 1357.167;  139.278; 1249.056
698.539; 1296.167;  185.278; 1141.056
699.110; 1434.167;  144.278; 1247.056
699.681; 1294.167;  152.278; 1169.056
700.251; 1223.167;  120.278; 1113.056
700.822; 1416.167;  170.278; 1308.056
701.392; 1377.167;  157.278; 1222.056
701.963; 1338.167;  153.278; 1203.056
702.534; 1210.167;  151.278; 1070.056
703.104; 1195.167;  155.278; 1090.056
703.674; 1241.167;  166.278; 1109.056
704.245; 1220.167;  125.278; 1104.056
704.815; 1292.167;  129.278; 1117.056
705.385; 1176.167;  140.278; 1034.056
705.956; 1297.167;  172.278; 1104.056
706.526; 1344.167;  168.278; 1206.056
707.096; 1271.167;  161.278; 1169.056
707.666; 1301.167;  147.278; 1212.056
708.236; 1331.167;  169.278; 1226.056
708.807; 1114.167;  159.278; 1019.056
709.377; 1195.167;  135.278; 1058.056
709.947; 1259.167;  143.278; 1126.056
710.516; 1334.167;  184.278; 1231.056
711.086; 1179.167;  115.278; 1076.056
711.656; 1392.167;  194.278; 1241.056
712.226; 1349.167;  190.278; 1242.056
712.796; 1329.167;  132.278; 1210.056
713.366; 1424.167;  203.278; 1317.056
713.935; 1281.167;  160.278; 1209.056
714.505; 1311.167;  140.278; 1172.056
715.075; 1232.167;  152.278; 1092.056
715.644; 1160.167;  127.278; 1050.056
716.214; 1249.167;  158.278; 1088.056
716.783; 1452.167;  171.278; 1300.056
717.353; 1365.167;  175.278; 1217.056
717.922; 1131.167;  147.278; 1049.056
718.492; 1195.167;  164.278; 1066.056
719.061; 1450.167;  188.278; 1281.056
719.630; 1325.167;  168.278; 1245.056
720.199; 1334.167;  174.278; 1202.056
720.769; 1289.167;  164.278; 1182.056
721.338; 1367.167;  159.278; 1256.056
721.907; 1308.167;  129.278; 1184.056
722.476; 1374.167;  187.278; 1274.056
723.045; 1182.167;  126.278; 1066.056
723.614; 1378.167;  177.278; 1284.056
724.183; 1173.167;  116.278; 1077.056
724.752; 1173.167;  131.278; 1035.056
725.321; 1284.167;  134.278; 1172.056
725.890; 1214.167;  104.278; 1062.056
726.459; 1134.167;  159.278; 1045.056
727.027; 1412.167;  185.278; 1328.056
727.596; 1602.167;  182.278; 1463.056
728.165; 1155.167;  114.278; 1073.056
728.733; 1232.167;  131.278; 1130.056
729.302; 1386.167;  162.278; 1210.056
729.871; 1323.167;  165.278; 1145.056
730.439; 1340.167;  184.278; 1275.056
731.008; 1361.167;  174.278; 1288.056
731.576; 1781.167;  198.278; 1646.056
732.144; 1284.167;  118.278; 1174.056
732.713; 1399.167;  171.278; 1250.056
733.281; 1409.167;  177.278; 1253.056
733.849; 1172.167;  170.278; 1083.056
734.418; 1276.167;  162.278; 1132.056
734.986; 1273.167;  146.278; 1190.056
735.554; 1295.167;  132.278; 1108.056
736.122; 1180.167;  113.278; 1054.056
736.690; 1357.167;  154.278; 1265.056
737.258; 1289.167;  172.278; 1219.056
737.826; 1248.167;  150.278; 1118.056
738.394; 1357.167;  141.278; 1301.056
738.962; 1617.167;  213.278; 1532.056
739.530; 1346.167;  174.278; 1206.056
740.098; 1286.167;  199.278; 1163.056
740.665; 1563.167;  200.278; 1506.056
741.233; 1402.167;  171.278; 1352.056
741.801; 1334.167;  145.278; 1223.056
742.369; 1310.167;  170.278; 1198.056
742.936; 1106.167;  118.278;  987.056
743.504; 1169.167;  113.278; 1076.056
744.071; 1324.167;  134.278; 1185.056
744.639; 1034.167;  139.278;  975.056
745.206; 1144.167;   72.278; 1040.056
745.774; 1298.167;  166.278; 1213.056
746.341; 1378.167;  169.278; 1311.056
746.908; 1349.167;  180.278; 1232.056
747.476; 1234.167;  114.278; 1133.056
748.043; 1177.167;  151.278; 1161.056
748.610; 1294.167;  150.278; 1156.056
749.177; 1262.167;  149.278; 1169.056
749.744; 1168.167;  129.278; 1069.056
750.311; 1090.167;  166.278;  982.056
750.878; 1114.167;  146.278; 1034.056
751.445; 1218.167;  108.278; 1125.056
752.012; 1248.167;  129.278; 1138.056
752.579; 1277.167;  155.278; 1180.056
753.146; 1308.167;  176.278; 1208.056
753.713; 1254.167;  172.278; 1124.056
754.280; 1274.167;  175.278; 1214.056
754.847; 1351.167;  183.278; 1282.056
755.413; 1790.167;  188.278; 1681.056
755.980; 1221.167;  161.278; 1157.056
756.546; 1344.167;  177.278; 1217.056
757.113;  998.167;   48.278;  958.056
757.680;  951.167;   80.278;  918.056
758.246; 1240.167;  165.278; 1110.056
758.813; 1142.167;  143.278; 1118.056
759.379; 1211.167;  141.278; 1094.056
759.945; 1250.167;  145.278; 1154.056
760.512; 1409.167;  159.278; 1324.056
761.078; 1169.167;  155.278; 1122.056
761.644; 1318.167;  142.278; 1254.056
762.210; 1235.167;  111.278; 1086.056
762.777; 1406.167;  153.278; 1232.056
763.343; 1254.167;  158.278; 1201.056
763.909; 1320.167;  128.278; 1226.056
764.475;  996.167;  126.278;  982.056
765.041; 1269.167;  160.278; 1216.056
765.607; 1160.167;  105.278; 1127.056
766.173; 1248.167;  136.278; 1184.056
766.738; 1197.167;  157.278; 1088.056
767.304; 1253.167;  122.278; 1188.056
767.870; 1326.167;  173.278; 1275.056
768.436; 1413.167;  187.278; 1293.056
769.002; 1333.167;  127.278; 1249.056
769.567; 1290.167;  189.278; 1221.056
770.133; 1156.167;  148.278; 1045.056
770.698; 1406.167;  201.278; 1317.056
771.264; 1202.167;  150.278; 1102.056
771.829; 1278.167;  156.278; 1174.056
772.395; 1212.167;  133.278; 1134.056
772.960; 1209.167;  177.278; 1120.056
773.526; 1300.167;  171.278; 1230.056
774.091; 1342.167;  182.278; 1238.056
774.656; 1188.167;  161.278; 1072.056
775.221; 1313.167;  175.278; 1240.056
775.787; 1102.167;  133.278; 1045.056
776.352; 1045.167;  110.278;  950.056
776.917; 1220.167;  138.278; 1100.056
777.482; 1037.167;   63.278;  935.056
778.047; 1286.167;  136.278; 1143.056
778.612; 1338.167;  183.278; 1248.056
779.177; 1310.167;  148.278; 1222.056
779.742; 1279.167;  142.278; 1141.056
780.307; 1112.167;  144.278; 1049.056
780.871; 1178.167;  151.278; 1075.056
781.436; 1286.167;  176.278; 1151.056
782.001; 1234.167;  165.278; 1152.056
782.566; 1251.167;  142.278; 1126.056
783.130; 1261.167;  123.278; 1230.056
783.695; 1342.167;  170.278; 1257.056
784.259; 1184.167;  165.278; 1081.056
784.824; 1100.167;  153.278; 1029.056
785.388; 1117.167;  118.278; 1084.056
785.953; 1200.167;  122.278; 1090.056
786.517; 1228.167;  154.278; 1150.056
787.081; 1559.167;  189.278; 1410.056
787.646; 1387.167;  181.278; 1336.056
788.210; 1174.167;  126.278; 1113.056
788.774; 1439.167;  194.278; 1336.056
789.338; 1039.167;  128.278;  990.056
789.903; 1149.167;   71.278; 1088.056
790.467; 1269.167;  175.278; 1199.056
791.031; 1244.167;  160.278; 1166.056
791.595; 1469.167;  202.278; 1351.056
792.159; 1143.167;  155.278; 1048.056
792.723; 1376.167;  194.278; 1275.056
793.286; 1322.167;  150.278; 1199.056
793.850; 1251.167;  151.278; 1136.056
794.414; 1384.167;  176.278; 1247.056
794.978; 1147.167;  140.278; 1039.056
795.542; 1597.167;  218.278; 1483.056
796.105; 1294.167;  150.278; 1159.056
796.669; 1305.167;  178.278; 1217.056
797.232; 1295.167;  175.278; 1221.056
797.796; 1321.167;  157.278; 1211.056
798.359; 1178.167;  162.278; 1113.056
798.923;  958.167;   82.278;  837.056
799.486; 1188.167;  142.278; 1120.056
800.050; 1297.167;  158.278; 1192.056
800.613; 1100.167;   69.278; 1033.056
801.176; 1214.167;  166.278; 1088.056
801.739; 1130.167;  136.278; 1048.056
802.303; 1341.167;  160.278; 1259.056
802.866; 1292.167;  156.278; 1253.056
803.429; 1429.167;  113.278; 1294.056
803.992; 1290.167;  160.278; 1241.056
804.555; 1136.167;  149.278; 1085.056
805.118; 1190.167;  143.278; 1067.056
805.681; 1205.167;  165.278; 1122.056
806.244; 1194.167;  165.278; 1114.056
806.807; 1358.167;  159.278; 1230.056
807.369; 1167.167;  135.278; 1030.056
807.932; 1272.167;  164.278; 1165.056
808.495; 1636.167;  191.278; 1490.056
809.058; 1548.167;  215.278; 1444.056
809.620; 1288.167;  156.278; 1232.056
810.183; 1381.167;  158.278; 1226.056
810.745; 1377.167;  197.278; 1238.056
811.308; 1367.167;  168.278; 1246.056
811.870; 1475.167;  162.278; 1353.056
812.433; 1317.167;  181.278; 1147.056
812.995; 1320.167;  142.278; 1234.056
813.557; 1388.167;  157.278; 1274.056
814.120; 1229.167;  147.278; 1146.056
814.682; 1131.167;  152.278; 1036.056
815.244; 1180.167;  159.278; 1127.056
815.806; 1309.167;  152.278; 1132.056
816.368; 1209.167;  145.278; 1136.056
816.930; 1326.167;  112.278; 1170.056
817.492; 1477.167;  195.278; 1387.056
818.054; 1169.167;  112.278; 1093.056
818.616; 1164.167;  129.278; 1069.056
819.178; 1378.167;  193.278; 1215.056
819.740; 1104.167;  127.278; 1042.056
820.302; 1228.167;  116.278; 1097.056
820.864; 1488.167;  185.278; 1358.056
821.425; 1249.167;  185.278; 1092.056
821.987; 1326.167;  169.278; 1175.056
822.549; 1215.167;  156.278; 1118.056
823.110; 1295.167;  175.278; 1228.056
823.672; 1365.167;   93.278; 1180.056
824.233; 1292.167;  169.278; 1177.056
824.795; 1346.167;  137.278; 1255.056
825.356; 1129.167;  131.278;  998.056
825.918; 1213.167;  150.278; 1045.056
826.479; 1162.167;  131.278; 1043.056
827.040; 1273.167;  163.278; 1104.056
827.602; 1446.167;  175.278; 1311.056
828.163; 1374.167;  170.278; 1236.056
828.724; 1236.167;  180.278; 1142.056
829.285; 1320.167;   98.278; 1143.056
829.846; 1210.167;  162.278; 1149.056
830.407; 1374.167;  148.278; 1271.056
830.968; 1196.167;  180.278; 1069.056
831.529; 1209.167;  163.278; 1114.056
832.090; 1339.167;  186.278; 1257.056
832.651; 1130.167;  180.278; 1030.056
833.212; 1176.167;  149.278; 1115.056
833.772; 1163.167;  151.278; 1056.056
834.333; 1348.167;  180.278; 1232.056
834.894; 1225.167;  124.278; 1066.056
835.454; 1248.167;  107.278; 1158.056
836.015; 1129.167;   73.278; 1009.056
836.575; 1345.167;  176.278; 1253.056
837.136; 1167.167;  103.278; 1013.056
837.696; 1338.167;  163.278; 1244.056
838.257; 1271.167;  138.278; 1154.056
838.817; 1282.167;  151.278; 1210.056
839.378; 1282.167;  173.278; 1124.056
839.938; 1125.167;  128.278; 1056.056
840.498; 1082.167;  108.278; 1001.056
841.058; 1063.167;   98.278;  984.056
841.618; 1260.167;  152.278; 1122.056
842.179; 1230.167;  161.278; 1075.056
842.739; 1336.167;  161.278; 1187.056
843.299; 1126.167;  147.278; 1064.056
843.859; 1489.167;  152.278; 1353.056
844.419; 1195.167;  167.278; 1076.056
844.978; 1416.167;  193.278; 1297.056
845.538; 1283.167;  163.278; 1179.056
846.098; 1582.167;  228.278; 1435.056
846.658; 1100.167;   85.278; 1016.056
847.217; 1119.167;  112.278; 1003.056
847.777; 1377.167;  177.278; 1260.056
848.337; 1431.167;  176.278; 1291.056
848.896; 1462.167;  189.278; 1357.056
849.456; 1221.167;  133.278; 1097.056
850.015; 1137.167;  139.278; 1055.056
850.575; 1192.167;  139.278; 1137.056
851.134; 1143.167;  157.278; 1033.056
851.694; 1414.167;  159.278; 1230.056
852.253; 1304.167;  163.278; 1160.056
852.812; 1470.167;  170.278; 1333.056
853.371; 1203.167;  126.278; 1098.056
853.931; 1283.167;  137.278; 1144.056
854.490; 1226.167;  152.278; 1056.056
855.049; 1249.167;  142.278; 1125.056
855.608; 1304.167;  154.278; 1184.056
856.167; 1249.167;  144.278; 1116.056
856.726; 1437.167;  187.278; 1293.056
857.285; 1220.167;  155.278; 1139.056
857.844; 1404.167;  206.278; 1320.056
858.402; 1243.167;  130.278; 1149.056
858.961; 1310.167;  157.278; 1199.056
859.520; 1158.167;  158.278; 1054.056
860.079; 1305.167;  156.278; 1237.056
860.637; 1209.167;  116.278; 1129.056
861.196; 1255.167;  180.278; 1164.056
861.754; 1322.167;  129.278; 1191.056
862.313; 1108.167;  146.278; 1022.056
862.871; 1200.167;  151.278; 1086.056
863.430; 1176.167;  153.278; 1074.056
863.988; 1109.167;   97.278; 1039.056
864.547; 1614.167;  229.278; 1479.056
865.105; 1331.167;  154.278; 1238.056
865.663; 1291.167;  104.278; 1150.056
866.221; 1301.167;  171.278; 1202.056
866.779; 1226.167;  159.278; 1127.056
867.338; 1040.167;   81.278;  989.056
867.896; 1265.167;  182.278; 1166.056
868.454; 1125.167;  145.278; 1050.056
869.012; 1290.167;  120.278; 1178.056
869.570; 1258.167;  132.278; 1077.056
870.127; 1243.167;  151.278; 1198.056
870.685; 1200.167;  136.278; 1094.056
871.243; 1408.167;  151.278; 1306.056
871.801; 1192.167;  161.278; 1060.056
872.359; 1396.167;  155.278; 1290.056
872.916; 1313.167;  172.278; 1172.056
873.474; 1203.167;  127.278; 1144.056
874.031; 1265.167;  152.278; 1176.056
874.589; 1279.167;  171.278; 1205.056
875.146; 1153.167;  138.278; 1104.056
875.704; 1112.167;  129.278; 1079.056
876.261; 4859.167;  758.278; 5439.056
876.819; 1416.167;  211.278; 1367.056
877.376; 1753.167;  222.278; 1626.056
877.933; 1556.167;  216.278; 1447.056
878.490; 1357.167;  163.278; 1279.056
879.048; 1119.167;  148.278; 1055.056
879.605; 1421.167;  192.278; 1301.056
880.162; 1330.167;  176.278; 1266.056
880.719; 1301.167;  155.278; 1199.056
881.276; 1192.167;  160.278; 1097.056
881.833; 1385.167;  179.278; 1325.056
882.390; 1144.167;  167.278; 1030.056
882.947; 1324.167;  169.278; 1174.056
883.503; 1312.167;  134.278; 1237.056
884.060; 1341.167;  159.278; 1284.056
884.617; 1238.167;  146.278; 1150.056
885.174; 1371.167;  166.278; 1296.056
885.730; 1221.167;  171.278; 1122.056
886.287; 1327.167;  178.278; 1168.056
886.843; 1388.167;  162.278; 1283.056
887.400; 1104.167;   88.278; 1010.056
887.956; 1391.167;  148.278; 1265.056
888.513; 1474.167;  204.278; 1380.056
889.069; 1287.167;  156.278; 1153.056
889.625; 1219.167;  150.278; 1107.056
890.182; 1249.167;  171.278; 1106.056
890.738; 1319.167;  133.278; 1206.056
891.294; 1200.167;  147.278; 1107.056
891.850; 1171.167;  129.278; 1072.056
892.406; 1245.167;  158.278; 1131.056
892.962; 1180.167;  154.278; 1082.056
893.518; 1243.167;  165.278; 1166.056
894.074; 1241.167;  130.278; 1081.056
894.630; 1407.167;  177.278; 1291.056
895.186; 1178.167;  132.278; 1081.056
895.742; 1239.167;  160.278; 1138.056
896.298; 1307.167;  149.278; 1204.056
896.853; 1200.167;   98.278; 1122.056
897.409; 1401.167;  141.278; 1283.056
897.965; 1322.167;  153.278; 1216.056
898.520; 1287.167;  149.278; 1188.056
899.076; 1365.167;  173.278; 1257.056
899.631; 1323.167;  150.278; 1186.056
900.187; 1246.167;  159.278; 1139.056
900.742; 1384.167;  159.278; 1285.056
901.297; 1429.167;  173.278; 1321.056
901.853; 1322.167;  171.278; 1320.056
902.408; 1233.167;   74.278; 1124.056
902.963; 1362.167;  144.278; 1205.056
903.518; 1233.167;  164.278; 1210.056
904.074; 1368.167;  147.278; 1304.056
904.629; 1244.167;  162.278; 1119.056
905.184; 1298.167;  184.278; 1211.056
905.739; 1390.167;  201.278; 1316.056
906.294; 1378.167;  165.278; 1288.056
906.849; 1353.167;  162.278; 1267.056
907.403; 1263.167;  156.278; 1181.056
907.958; 1116.167;  119.278; 1033.056
908.513; 1390.167;  173.278; 1289.056
909.068; 1468.167;  195.278; 1377.056
909.622; 1440.167;  176.278; 1267.056
910.177; 1419.167;  185.278; 1354.056
910.732; 1337.167;  106.278; 1260.056
911.286; 1282.167;  189.278; 1176.056
911.841; 1251.167;  150.278; 1196.056
912.395; 1271.167;  151.278; 1157.056
912.950; 1343.167;  175.278; 1166.056
913.504; 1796.167;  210.278; 1701.056
914.058; 1234.167;  117.278; 1141.056
914.613; 1323.167;  136.278; 1251.056
915.167; 1277.167;  140.278; 1190.056
915.721; 1121.167;  150.278; 1032.056
916.275; 1375.167;  160.278; 1266.056
916.829; 1424.167;  171.278; 1260.056
917.383; 1297.167;  137.278; 1179.056
917.937; 1372.167;  171.278; 1262.056
918.491; 1316.167;  150.278; 1233.056
919.045; 1205.167;  163.278; 1174.056
919.599; 1247.167;  144.278; 1159.056
920.153; 1248.167;  155.278; 1167.056
920.706; 1309.167;  158.278; 1264.056
921.260; 1261.167;  158.278; 1178.056
921.814; 1222.167;  134.278; 1108.056
922.367; 1423.167;  193.278; 1361.056
922.921; 1355.167;  180.278; 1255.056
923.475; 1264.167;  116.278; 1145.056
924.028; 1354.167;  158.278; 1308.056
924.581; 1464.167;  208.278; 1359.056
925.135; 1463.167;  199.278; 1356.056
925.688; 1373.167;  181.278; 1267.056
926.242; 1239.167;  179.278; 1158.056
926.795; 1286.167;  114.278; 1155.056
927.348; 1291.167;  175.278; 1317.056
927.901; 1477.167;  190.278; 1363.056
928.454; 1250.167;  129.278; 1127.056
929.007; 1271.167;  166.278; 1148.056
929.560; 1298.167;  110.278; 1117.056
930.113; 1869.167;  222.278; 1790.056
930.666; 1598.167;  196.278; 1527.056
931.219; 1282.167;  195.278; 1187.056
931.772; 1241.167;  162.278; 1155.056
932.325; 1410.167;  172.278; 1304.056
932.878; 1166.167;  144.278; 1036.056
933.430; 1304.167;  203.278; 1223.056
933.983; 1360.167;  152.278; 1237.056
934.535; 1120.167;  130.278; 1051.056
935.088; 1136.167;  139.278; 1075.056
935.641; 1276.167;  159.278; 1223.056
936.193; 1419.167;  166.278; 1311.056
936.745; 1321.167;  169.278; 1234.056
937.298; 1281.167;  150.278; 1211.056
937.850; 1229.167;  178.278; 1117.056
938.402; 1265.167;  182.278; 1179.056
938.955; 1439.167;  200.278; 1365.056
939.507; 1224.167;  155.278; 1104.056
940.059; 1116.167;   92.278; 1099.056
940.611; 1382.167;  162.278; 1270.056
941.163; 1290.167;  156.278; 1199.056
941.715; 1053.167;  105.278;  952.056
942.267; 1333.167;  170.278; 1227.056
942.819; 1543.167;  211.278; 1433.056
943.371; 1202.167;  140.278; 1152.056
943.923; 1258.167;  137.278; 1219.056
944.474; 2086.167;  305.278; 1981.056
945.026; 1130.167;  146.278; 1061.056
945.578; 1351.167;  180.278; 1226.056
946.129; 1140.167;  145.278; 1055.056
946.681; 1172.167;  159.278; 1085.056
947.233; 1302.167;  165.278; 1258.056
947.784; 1182.167;  146.278; 1104.056
948.336; 1169.167;  165.278; 1058.056
948.887; 1215.167;  171.278; 1135.056
949.438; 1323.167;  176.278; 1230.056
949.990; 1256.167;  145.278; 1176.056
950.541; 1186.167;  134.278; 1135.056
951.092; 1564.167;  187.278; 1460.056
951.643; 1303.167;  164.278; 1171.056
952.194; 1231.167;  187.278; 1138.056
952.745; 1203.167;  135.278; 1161.056
953.296; 1280.167;  110.278; 1165.056
953.847; 1147.167;  156.278; 1137.056
954.398; 1233.167;  169.278; 1143.056
954.949; 1547.167;  238.278; 1436.056
955.500; 1437.167;  196.278; 1374.056
956.051; 1269.167;  190.278; 1166.056
956.602; 1399.167;  139.278; 1306.056
957.152; 1314.167;  135.278; 1227.056
957.703; 1255.167;  172.278; 1135.056
958.253; 1268.167;  169.278; 1172.056
958.804; 1212.167;  144.278; 1094.056
959.355; 1491.167;  208.278; 1430.056
959.905; 1348.167;  126.278; 1257.056
960.455; 1287.167;  171.278; 1269.056
961.006; 1475.167;  207.278; 1419.056
961.556; 1375.167;  179.278; 1212.056
962.106; 1331.167;  133.278; 1244.056
962.657; 1207.167;  148.278; 1114.056
963.207; 1201.167;  150.278; 1092.056
963.757; 1261.167;  172.278; 1205.056
964.307; 1479.167;  204.278; 1339.056
964.857; 1349.167;  169.278; 1279.056
965.407; 1449.167;  187.278; 1344.056
965.957; 1582.167;  226.278; 1473.056
966.507; 1196.167;  151.278; 1092.056
967.057; 1193.167;  173.278; 1159.056
967.606; 1340.167;  153.278; 1193.056
968.156; 1094.167;  126.278; 1059.056
968.706; 1254.167;  168.278; 1204.056
969.256; 1293.167;  174.278; 1203.056
969.805; 1600.167;  155.278; 1459.056
970.355; 1349.167;  175.278; 1304.056
970.904; 1044.167;  110.278;  983.056
971.454; 1342.167;  169.278; 1255.056
972.003; 1518.167;  202.278; 1459.056
972.552; 1225.167;  122.278; 1129.056
973.102; 1302.167;  150.278; 1243.056
973.651; 1325.167;  164.278; 1219.056
974.200; 1170.167;  123.278; 1139.056
974.750; 1214.167;  174.278; 1155.056
975.299; 1160.167;  136.278; 1074.056
975.848; 1296.167;  180.278; 1187.056
976.397; 1310.167;  161.278; 1211.056
976.946; 1346.167;  142.278; 1273.056
977.495; 1270.167;  170.278; 1211.056
978.044; 1319.167;  151.278; 1248.056
978.592; 1263.167;  159.278; 1197.056
979.141; 1254.167;  171.278; 1177.056
979.690; 1384.167;  162.278; 1218.056
980.239; 1108.167;   84.278;  997.056
980.787; 1325.167;  180.278; 1313.056
981.336; 1247.167;  174.278; 1124.056
981.885; 1340.167;  160.278; 1234.056
982.433; 1129.167;  146.278;  998.056
982.982; 1323.167;  121.278; 1178.056
983.530; 1460.167;  187.278; 1386.056
984.078; 1401.167;  188.278; 1329.056
984.627; 1155.167;  165.278; 1072.056
985.175; 1358.167;  170.278; 1246.056
985.723; 1361.167;  179.278; 1266.056
986.271; 1469.167;  172.278; 1364.056
986.819; 1290.167;  157.278; 1206.056
987.368; 1335.167;  173.278; 1267.056
987.916; 1224.167;  154.278; 1118.056
988.464; 1358.167;  190.278; 1254.056
989.012; 1296.167;  151.278; 1225.056
989.559; 1244.167;  123.278; 1206.056
990.107; 1443.167;  171.278; 1277.056
990.655; 1203.167;  172.278; 1114.056
991.203; 1426.167;  168.278; 1388.056
991.751; 1137.167;  160.278; 1064.056
992.298; 1477.167;  178.278; 1314.056
992.846; 1209.167;  130.278; 1074.056
993.393; 1241.167;  189.278; 1232.056
993.941; 1410.167;  185.278; 1321.056
994.488; 1250.167;  159.278; 1165.056
995.036; 1290.167;  186.278; 1236.056
995.583; 1118.167;  138.278; 1066.056
996.130; 1186.167;  135.278; 1097.056
996.678; 1262.167;  177.278; 1252.056
997.225; 1348.167;  132.278; 1254.056
997.772; 1322.167;  182.278; 1249.056
998.319; 1248.167;  140.278; 1198.056
998.866; 1266.167;  146.278; 1202.056
999.413; 1252.167;  131.278; 1091.056
999.960; 1539.167;  191.278; 1428.056
1000.507; 1058.167;  114.278;  990.056
1001.054; 1373.167;  183.278; 1316.056
1001.601; 1174.167;  156.278; 1070.056
1002.148; 1299.167;  168.278; 1245.056
1002.694; 1205.167;  114.278; 1105.056
1003.241; 1336.167;  198.278; 1288.056
1003.788; 1368.167;  174.278; 1291.056
1004.334; 1244.167;  171.278; 1230.056
1004.881; 1133.167;  127.278; 1072.056
1005.427; 1334.167;  172.278; 1250.056
1005.974; 1417.167;  126.278; 1265.056
1006.520; 1201.167;  180.278; 1117.056
1007.067; 1297.167;  130.278; 1230.056
1007.613; 1330.167;  198.278; 1305.056
1008.159; 1378.167;  173.278; 1250.056
1008.705; 1242.167;  166.278; 1158.056
1009.252; 1228.167;  115.278; 1114.056
1009.798; 1174.167;  164.278; 1086.056
1010.344; 1368.167;  172.278; 1264.056
1010.890; 1176.167;  155.278; 1142.056
1011.436; 1176.167;  168.278; 1112.056
1011.982; 1281.167;  182.278; 1188.056
1012.528; 1270.167;  149.278; 1134.056
1013.073; 1179.167;  165.278; 1133.056
1013.619; 1527.167;  158.278; 1456.056
1014.165; 1103.167;  135.278; 1097.056
1014.711; 1270.167;  144.278; 1187.056
1015.256; 1196.167;  135.278; 1100.056
1015.802; 1253.167;  143.278; 1144.056
1016.347; 1367.167;  168.278; 1257.056
1016.893; 1227.167;  176.278; 1130.056
1017.438; 1548.167;  171.278; 1487.056
1017.984; 1387.167;  180.278; 1293.056
1018.529; 1298.167;  202.278; 1171.056
1019.074; 1293.167;  131.278; 1198.056
1019.619; 1253.167;  185.278; 1158.056
1020.165; 1185.167;  164.278; 1137.056
1020.710; 1213.167;  169.278; 1150.056
1021.255; 1260.167;  132.278; 1169.056
1021.800; 1510.167;  200.278; 1470.056
1022.345; 1620.167;  191.278; 1536.056
1022.890; 1286.167;  197.278; 1170.056
1023.435; 1376.167;  185.278; 1284.056
1023.980; 1227.167;  195.278; 1138.056
1024.524; 1236.167;  159.278; 1214.056
1025.069; 1241.167;  180.278; 1123.056
1025.614; 1120.167;  125.278; 1074.056
1026.159; 1243.167;  159.278; 1153.056
1026.703; 1299.167;  168.278; 1256.056
1027.248; 1513.167;  176.278; 1446.056
1027.792; 1296.167;  173.278; 1239.056
1028.337; 1243.167;  181.278; 1136.056
1028.881; 1233.167;  146.278; 1168.056
1029.425; 1559.167;  217.278; 1445.056
1029.970; 1202.167;  165.278; 1102.056
1030.514; 1199.167;  159.278; 1131.056
1031.058; 1051.167;  141.278;  987.056
1031.602; 1188.167;  168.278; 1161.056
1032.147; 1389.167;  163.278; 1300.056
1032.691; 1150.167;  155.278; 1042.056
1033.235; 1275.167;  180.278; 1253.056
1033.779; 1397.167;  193.278; 1325.056
1034.323; 1239.167;  147.278; 1168.056
1034.866; 1304.167;  160.278; 1225.056
1035.410; 1384.167;  160.278; 1256.056
1035.954; 1305.167;  177.278; 1208.056
1036.498; 1356.167;  163.278; 1222.056
1037.041; 1267.167;  148.278; 1173.056
1037.585; 1173.167;  147.278; 1142.056
1038.129; 1209.167;  165.278; 1161.056
1038.672; 1280.167;  141.278; 1181.056
1039.216; 1399.167;  204.278; 1302.056
1039.759; 1269.167;  175.278; 1184.056
1040.302; 1166.167;  144.278; 1114.056
1040.846; 1122.167;  167.278; 1156.056
1041.389; 1301.167;  161.278; 1200.056
1041.932; 1355.167;  157.278; 1336.056
1042.475; 1336.167;  156.278; 1221.056
1043.019; 1410.167;  201.278; 1388.056
1043.562; 1280.167;  176.278; 1149.056
1044.105; 1240.167;  161.278; 1161.056
1044.648; 1475.167;  163.278; 1347.056
1045.191; 1297.167;  165.278; 1198.056
1045.734; 1138.167;  147.278; 1015.056
1046.276; 1251.167;  157.278; 1216.056
1046.819; 1273.167;  145.278; 1194.056
1047.362; 1187.167;  156.278; 1111.056
1047.905; 1348.167;  187.278; 1266.056
1048.447; 1262.167;  138.278; 1221.056
1048.990; 1345.167;  177.278; 1195.056
1049.532; 1218.167;  147.278; 1156.056
1050.075; 1311.167;  163.278; 1213.056
1050.617; 1401.167;  180.278; 1354.056
1051.160; 1076.167;  138.278; 1030.056
1051.702; 1370.167;  151.278; 1263.056
1052.244; 1300.167;  188.278; 1193.056
1052.787; 1515.167;  182.278; 1408.056
1053.329; 1342.167;  179.278; 1270.056
1053.871;  919.167;  116.278;  836.056
1054.413; 1432.167;  158.278; 1275.056
1054.955; 1197.167;  113.278; 1114.056
1055.497; 1321.167;  176.278; 1167.056
1056.039; 1242.167;  168.278; 1222.056
1056.581; 1243.167;  179.278; 1181.056
1057.123; 1131.167;  148.278; 1133.056
1057.665; 1164.167;  127.278; 1064.056
1058.206; 1270.167;  147.278; 1161.056
1058.748; 1174.167;  101.278; 1082.056
1059.290; 1255.167;  134.278; 1186.056
1059.831; 1445.167;  183.278; 1324.056
1060.373; 1089.167;  134.278; 1017.056
1060.914; 1304.167;  152.278; 1226.056
1061.456; 1232.167;  145.278; 1200.056
1061.997; 1419.167;  148.278; 1306.056
1062.538; 1238.167;  156.278; 1183.056
1063.080; 1264.167;  152.278; 1192.056
1063.621; 1167.167;  161.278; 1128.056
1064.162; 1275.167;  129.278; 1213.056
1064.703; 1253.167;  137.278; 1160.056
1065.244; 1314.167;  165.278; 1199.056
1065.786; 1285.167;  165.278; 1183.056
1066.327; 1305.167;  145.278; 1253.056
1066.867; 1089.167;  147.278; 1014.056
1067.408; 1184.167;  169.278; 1153.056
1067.949; 1208.167;  167.278; 1147.056
1068.490; 1384.167;  191.278; 1261.056
1069.031; 1384.167;  181.278; 1244.056
1069.571; 1264.167;  130.278; 1156.056
1070.112; 1275.167;  133.278; 1182.056
1070.653; 1083.167;   76.278; 1017.056
1071.193; 1197.167;  168.278; 1112.056
1071.734; 1353.167;  157.278; 1239.056
1072.274; 1349.167;  166.278; 1217.056
1072.815; 1177.167;  139.278; 1110.056
1073.355; 1263.167;  179.278; 1174.056
1073.895; 1308.167;  115.278; 1201.056
1074.436; 1092.167;  149.278; 1031.056
1074.976; 1286.167;  160.278; 1222.056
1075.516; 1342.167;  160.278; 1256.056
1076.056; 1203.167;  128.278; 1208.056
1076.596; 1227.167;  172.278; 1146.056
1077.136; 1275.167;  145.278; 1201.056
1077.676; 1244.167;  149.278; 1156.056
1078.216; 1226.167;  169.278; 1163.056
1078.756; 1181.167;  147.278; 1071.056
1079.296; 1375.167;  177.278; 1384.056
1079.835; 1295.167;  195.278; 1200.056
1080.375; 1175.167;  121.278; 1109.056
1080.915; 1186.167;  121.278; 1087.056
1081.454; 1250.167;  172.278; 1161.056
1081.994; 1149.167;  159.278; 1061.056
1082.533; 1065.167;  152.278; 1011.056
1083.073; 1151.167;  151.278; 1046.056
1083.612; 1564.167;  193.278; 1475.056
1084.151; 1320.167;  147.278; 1226.056
1084.691; 1306.167;  178.278; 1156.056
1085.230; 1268.167;  151.278; 1139.056
1085.769; 1247.167;  124.278; 1198.056
1086.308; 1119.167;  119.278; 1011.056
1086.847; 1559.167;  130.278; 1502.056
1087.386; 1108.167;  138.278;  979.056
1087.925; 1213.167;  144.278; 1121.056
1088.464; 1491.167;  221.278; 1354.056
1089.003; 1183.167;  156.278; 1115.056
1089.542; 1173.167;  144.278; 1102.056
1090.081; 1139.167;  128.278; 1091.056
1090.620; 1180.167;  171.278; 1132.056
1091.158; 1233.167;  161.278; 1174.056
1091.697; 1347.167;  175.278; 1265.056
1092.236; 1320.167;  191.278; 1272.056
1092.774; 1263.167;  141.278; 1177.056
1093.313; 1239.167;  138.278; 1179.056
1093.851; 1252.167;  151.278; 1218.056
1094.389; 1305.167;  164.278; 1214.056
1094.928; 1387.167;  186.278; 1269.056
1095.466; 1115.167;  163.278; 1060.056
1096.004; 1095.167;  166.278; 1059.056
1096.542; 1351.167;  148.278; 1256.056
1097.081; 1454.167;  195.278; 1322.056
1097.619; 1405.167;  182.278; 1310.056
1098.157; 1175.167;  148.278; 1121.056
1098.695; 1609.167;  176.278; 1563.056
1099.233; 1393.167;  143.278; 1383.056
1099.771; 1320.167;  138.278; 1224.056
1100.308; 1190.167;  154.278; 1038.056
1100.846; 1273.167;  147.278; 1186.056
1101.384; 1398.167;  157.278; 1281.056
1101.922; 1222.167;  144.278; 1239.056
1102.459; 1305.167;  154.278; 1237.056
1102.997; 1818.167;  220.278; 1738.056
1103.534; 1258.167;  162.278; 1180.056
1104.072; 1202.167;  161.278; 1098.056
1104.609; 1244.167;  173.278; 1153.056
1105.146; 1306.167;  160.278; 1208.056
1105.684; 1254.167;  129.278; 1188.056
1106.221; 1512.167;  168.278; 1413.056
1106.758; 1290.167;  145.278; 1248.056
1107.295; 1533.167;  185.278; 1476.056
1107.833; 1400.167;  175.278; 1271.056
1108.370; 1202.167;  143.278; 1131.056
1108.907; 1359.167;  177.278; 1244.056
1109.444; 1404.167;  145.278; 1243.056
1109.981; 1278.167;  173.278; 1211.056
1110.517; 1433.167;  178.278; 1359.056
1111.054; 1194.167;  132.278; 1099.056
1111.591; 1449.167;  195.278; 1383.056
1112.128; 1253.167;  191.278; 1207.056
1112.664; 1074.167;   97.278; 1027.056
1113.201; 1184.167;  162.278; 1119.056
1113.737; 1346.167;  139.278; 1283.056
1114.274; 1262.167;  184.278; 1169.056
1114.810; 1306.167;  192.278; 1265.056
1115.347; 1314.167;  183.278; 1265.056
1115.883; 1165.167;  122.278; 1133.056
1116.419; 1300.167;  176.278; 1257.056
1116.956; 1246.167;  151.278; 1190.056
1117.492; 1198.167;  157.278; 1120.056
1118.028; 1862.167;  204.278; 1734.056
1118.564; 1238.167;  160.278; 1174.056
1119.100; 1241.167;  105.278; 1114.056
1119.636; 1470.167;  186.278; 1388.056
1120.172; 1390.167;  207.278; 1325.056
1120.708; 1492.167;  185.278; 1498.056
1121.244; 1306.167;  147.278; 1214.056
1121.780; 1354.167;  175.278; 1346.056
1122.315; 1272.167;  126.278; 1161.056
1122.851; 1320.167;  180.278; 1246.056
1123.387; 1229.167;  163.278; 1146.056
1123.922; 1346.167;  180.278; 1246.056
1124.458; 1322.167;  172.278; 1258.056
1124.993; 1299.167;  160.278; 1218.056
1125.529; 1573.167;  177.278; 1490.056
1126.064; 1422.167;  196.278; 1296.056
1126.599; 1320.167;  187.278; 1264.056
1127.135; 1390.167;  205.278; 1264.056
1127.670; 1325.167;  187.278; 1242.056
1128.205; 1144.167;  177.278; 1046.056
1128.740; 1154.167;  125.278; 1113.056
1129.275; 1185.167;  130.278; 1055.056
1129.810; 1272.167;  181.278; 1189.056
1130.345; 1394.167;  166.278; 1234.056
1130.880; 1133.167;  153.278; 1036.056
1131.415; 1434.167;  179.278; 1344.056
1131.950; 1126.167;  134.278; 1121.056
1132.484; 1315.167;  161.278; 1266.056
1133.019; 1358.167;  172.278; 1284.056
1133.554; 1322.167;  149.278; 1201.056
1134.088; 1290.167;  162.278; 1157.056
1134.623; 1188.167;  158.278; 1094.056
1135.157; 1341.167;   73.278; 1274.056
1135.692; 1268.167;  151.278; 1209.056
1136.226; 1444.167;  189.278; 1386.056
1136.761; 1364.167;  190.278; 1254.056
1137.295; 1217.167;  148.278; 1122.056
1137.829; 1194.167;  153.278; 1112.056
1138.363; 1137.167;  138.278; 1112.056
1138.897; 1529.167;  229.278; 1404.056
1139.431; 1437.167;  202.278; 1368.056
1139.965; 1222.167;  163.278; 1100.056
1140.499; 1410.167;  213.278; 1339.056
1141.033; 1250.167;  148.278; 1167.056
1141.567; 1294.167;  125.278; 1245.056
1142.101; 1250.167;  178.278; 1141.056
1142.635; 1146.167;  138.278; 1089.056
1143.169; 1128.167;  139.278; 1063.056
1143.702; 1314.167;  169.278; 1197.056
1144.236; 1272.167;  173.278; 1200.056
1144.769; 1330.167;  162.278; 1318.056
1145.303; 1214.167;  154.278; 1194.056
1145.836; 1295.167;  158.278; 1233.056
1146.370; 1468.167;  195.278; 1420.056
1146.903; 1261.167;  177.278; 1109.056
1147.436; 1376.167;  160.278; 1282.056
1147.970; 1470.167;  158.278; 1386.056
1148.503; 1423.167;  182.278; 1330.056
1149.036; 1171.167;  142.278; 1121.056
1149.569; 1248.167;  181.278; 1224.056
1150.102; 1283.167;  149.278; 1168.056
1150.635; 1090.167;  152.278; 1000.056
1151.168; 1289.167;  134.278; 1234.056
1151.701; 1245.167;  176.278; 1158.056
1152.234; 1313.167;  177.278; 1237.056
1152.766; 1441.167;  195.278; 1273.056
1153.299; 1238.167;  159.278; 1119.056
1153.832; 1222.167;  166.278; 1160.056
1154.364; 1102.167;  111.278; 1048.056
1154.897; 1072.167;  103.278;  944.056
1155.430; 1126.167;  158.278; 1086.056
1155.962; 1228.167;  182.278; 1175.056
1156.494; 1228.167;  164.278; 1151.056
1157.027; 1242.167;  174.278; 1177.056
1157.559; 1341.167;  166.278; 1247.056
1158.091; 1204.167;  184.278; 1156.056
1158.623; 1325.167;  166.278; 1265.056
1159.156; 1349.167;  175.278; 1293.056
1159.688; 1256.167;  164.278; 1192.056
1160.220; 1292.167;  154.278; 1197.056
1160.752; 1209.167;  143.278; 1093.056
1161.284; 1104.167;  134.278; 1072.056
1161.816; 1346.167;  178.278; 1204.056
1162.347; 1351.167;  147.278; 1211.056
1162.879; 1427.167;  182.278; 1332.056
1163.411; 1220.167;  128.278; 1188.056
1163.943; 1229.167;  152.278; 1191.056
1164.474; 1174.167;  172.278; 1173.056
1165.006; 1209.167;  126.278; 1127.056
1165.537; 1237.167;  126.278; 1111.056
1166.069; 1257.167;  161.278; 1127.056
1166.600; 1308.167;  141.278; 1265.056
1167.132; 1222.167;  153.278; 1124.056
1167.663; 1816.167;  212.278; 1749.056
1168.194; 1274.167;  130.278; 1185.056
1168.725; 1294.167;  161.278; 1209.056
1169.256; 1307.167;  125.278; 1198.056
1169.788; 1398.167;  161.278; 1309.056
1170.319; 1213.167;  157.278; 1130.056
1170.850; 1158.167;  152.278; 1092.056
1171.380; 1282.167;  141.278; 1194.056
1171.911; 1183.167;  137.278; 1138.056
1172.442; 1086.167;  141.278;  958.056
1172.973; 1474.167;  183.278; 1442.056
1173.504; 1316.167;  189.278; 1211.056
1174.034; 1324.167;  189.278; 1256.056
1174.565; 1209.167;  141.278; 1158.056
1175.096; 1320.167;  155.278; 1274.056
1175.626; 1304.167;  166.278; 1194.056
1176.157; 1399.167;  167.278; 1303.056
1176.687; 1407.167;  195.278; 1309.056
1177.217; 1306.167;  139.278; 1250.056
1177.748; 1309.167;  184.278; 1204.056
1178.278; 1307.167;  162.278; 1176.056
1178.808; 1249.167;  146.278; 1145.056
1179.338; 1303.167;  128.278; 1236.056
1179.868; 1352.167;  178.278; 1226.056
1180.398; 1334.167;  157.278; 1271.056
1180.928; 1185.167;  124.278; 1105.056
1181.458; 1402.167;  166.278; 1282.056
1181.988; 1289.167;  153.278; 1189.056
1182.518; 1211.167;  104.278; 1144.056
1183.048; 1134.167;  177.278; 1069.056
1183.577; 1300.167;  169.278; 1290.056
1184.107; 1046.167;   88.278;  996.056
1184.637; 1198.167;  127.278; 1182.056
1185.166; 1217.167;  181.278; 1123.056
1185.696; 1468.167;  153.278; 1324.056
1186.225; 1369.167;  203.278; 1278.056
1186.755; 1206.167;  183.278; 1147.056
1187.284; 1478.167;  194.278; 1376.056
1187.813; 1300.167;  111.278; 1227.056
1188.342; 1425.167;  193.278; 1309.056
1188.872; 1248.167;  132.278; 1186.056
1189.401; 1164.167;  158.278; 1089.056
1189.930; 1406.167;  172.278; 1319.056
1190.459; 1229.167;  160.278; 1189.056
1190.988; 1388.167;  165.278; 1314.056
1191.517; 1321.167;  173.278; 1212.056
1192.046; 1349.167;  134.278; 1228.056
1192.574; 1156.167;  161.278; 1099.056
1193.103; 1180.167;  145.278; 1146.056
1193.632; 1181.167;  161.278; 1096.056
1194.161; 1184.167;  161.278; 1103.056
1194.689; 1106.167;   78.278; 1057.056
1195.218; 1347.167;  133.278; 1277.056
1195.746; 1235.167;  173.278; 1138.056
1196.275; 1114.167;  155.278; 1061.056
1196.803; 1239.167;  165.278; 1159.056
1197.331; 1292.167;  164.278; 1222.056
1197.860; 1201.167;  161.278; 1074.056
1198.388; 1261.167;  159.278; 1130.056
1198.916; 1184.167;  182.278; 1146.056
1199.444; 1279.167;  169.278; 1219.056
1199.972; 1133.167;  139.278; 1064.056
1200.500; 1340.167;  183.278; 1272.056
1201.028; 1302.167;  164.278; 1204.056
1201.556; 1421.167;  160.278; 1348.056
1202.084; 1439.167;  189.278; 1349.056
1202.612; 1242.167;  142.278; 1201.056
1203.139; 1433.167;  204.278; 1393.056
1203.667; 1374.167;  183.278; 1307.056
1204.195; 1218.167;  137.278; 1063.056
1204.722; 1223.167;  145.278; 1108.056
1205.250; 1350.167;  186.278; 1238.056
1205.777; 1298.167;  169.278; 1234.056
1206.305; 1332.167;  186.278; 1217.056
1206.832; 1572.167;  197.278; 1471.056
1207.359; 1297.167;  145.278; 1195.056
1207.887; 1382.167;  180.278; 1250.056
1208.414; 1358.167;  177.278; 1260.056
1208.941; 1277.167;  176.278; 1198.056
1209.468; 1449.167;  195.278; 1353.056
1209.995; 1288.167;  171.278; 1159.056
1210.522; 1258.167;  171.278; 1178.056
1211.049; 1324.167;  157.278; 1219.056
1211.576; 1414.167;  177.278; 1324.056
1212.103; 1258.167;  112.278; 1176.056
1212.630; 1371.167;  180.278; 1233.056
1213.156; 1178.167;  162.278; 1074.056
1213.683; 1361.167;  175.278; 1231.056
1214.210; 1294.167;  143.278; 1159.056
1214.736; 1342.167;  181.278; 1215.056
1215.263; 1363.167;  151.278; 1308.056
1215.789; 1222.167;  154.278; 1080.056
1216.315; 1424.167;  188.278; 1243.056
1216.842; 1330.167;   96.278; 1119.056
1217.368; 1414.167;  177.278; 1199.056
1217.894; 1341.167;  166.278; 1183.056
1218.421; 1500.167;  142.278; 1319.056
1218.947; 1201.167;  121.278; 1083.056
1219.473; 1360.167;  147.278; 1221.056
1219.999; 1388.167;  137.278; 1237.056
1220.525; 1414.167;  168.278; 1307.056
1221.051; 1441.167;  158.278; 1221.056
1221.576; 1260.167;  171.278; 1109.056
1222.102; 1737.167;  238.278; 1586.056
1222.628; 1311.167;  187.278; 1184.056
1223.154; 1292.167;  135.278; 1117.056
1223.679; 1378.167;  142.278; 1112.056
1224.205; 1425.167;  160.278; 1168.056
1224.730; 1514.167;  174.278; 1272.056
1225.256; 1457.167;  146.278; 1101.056
1225.781; 1627.167;  190.278; 1256.056
1226.307; 1546.167;  158.278; 1159.056
1226.832; 1468.167;  133.278; 1085.056
1227.357; 1470.167;  136.278; 1113.056
1227.882; 1648.167;  188.278; 1302.056
1228.408; 1571.167;  134.278; 1317.056
1228.933; 1570.167;  202.278; 1353.056
1229.458; 1415.167;  127.278; 1150.056
1229.983; 1284.167;  159.278; 1074.056
1230.508; 1473.167;  157.278; 1266.056
1231.033; 1351.167;  172.278; 1236.056
1231.557; 1226.167;  162.278; 1092.056
1232.082; 1273.167;  148.278; 1146.056
1232.607; 1335.167;  140.278; 1186.056
1233.132; 1522.167;  179.278; 1294.056
1233.656; 1505.167;  191.278; 1367.056
1234.181; 1216.167;  156.278; 1095.056
1234.705; 1402.167;  177.278; 1282.056
1235.230; 1789.167;  213.278; 1616.056
1235.754; 1288.167;  102.278; 1174.056
1236.278; 1308.167;  156.278; 1139.056
1236.803; 1173.167;  157.278; 1027.056
1237.327; 1620.167;  187.278; 1390.056
1237.851; 1370.167;  153.278; 1197.056
1238.375; 1339.167;  154.278; 1158.056
1238.899; 1491.167;  155.278; 1271.056
1239.423; 1484.167;  171.278; 1291.056
1239.947; 1261.167;  170.278; 1122.056
1240.471; 1226.167;  103.278; 1114.056
1240.995; 1369.167;  182.278; 1278.056
1241.519; 1265.167;  132.278; 1141.056
1242.042; 1393.167;  134.278; 1265.056
1242.566; 1314.167;  158.278; 1124.056
1243.090; 1288.167;  148.278; 1144.056
1243.613; 1242.167;  172.278; 1166.056
1244.137; 1382.167;  157.278; 1240.056
1244.660; 1482.167;  200.278; 1332.056
1245.184; 1226.167;  130.278; 1071.056
1245.707; 1261.167;  173.278; 1107.056
1246.230; 1370.167;  175.278; 1250.056
1246.753; 1194.167;  155.278; 1069.056
1247.277; 1322.167;  139.278; 1167.056
1247.800; 1940.167;  224.278; 1871.056
1248.323; 1454.167;  133.278; 1313.056
1248.846; 1474.167;  200.278; 1286.056
1249.369; 1372.167;  152.278; 1212.056
1249.892; 1268.167;  162.278; 1127.056
1250.415; 1593.167;  189.278; 1359.056
1250.937; 1452.167;  191.278; 1316.056
1251.460; 1540.167;  125.278; 1370.056
1251.983; 1495.167;  161.278; 1319.056
1252.505; 1359.167;  140.278; 1171.056
1253.028; 1870.167;  231.278; 1637.056
1253.551; 1701.167;  232.278; 1525.056
1254.073; 1349.167;  181.278; 1160.056
1254.595; 1251.167;  125.278; 1123.056
1255.118; 1405.167;  179.278; 1265.056
1255.640; 1422.167;  178.278; 1266.056
1256.162; 1188.167;  137.278; 1058.056
1256.685; 1262.167;  175.278; 1095.056
1257.207; 1485.167;  161.278; 1249.056
1257.729; 1450.167;  114.278; 1200.056
1258.251; 1474.167;  200.278; 1208.056
1258.773; 1713.167;  183.278; 1342.056
1259.295; 1912.167;  206.278; 1331.056
1259.816; 1858.167;  187.278; 1214.056
1260.338; 1986.167;  158.278; 1183.056
1260.860; 2038.167;  109.278; 1137.056
1261.382; 2088.167;  186.278; 1184.056
1261.903; 2029.167;  136.278; 1223.056
1262.425; 1878.167;  130.278; 1170.056
1262.946; 1586.167;  146.278; 1135.056
1263.468; 1864.167;  185.278; 1402.056
1263.989; 1717.167;  146.278; 1361.056
1264.511; 1600.167;  175.278; 1209.056
1265.032; 1532.167;  168.278; 1256.056
1265.553; 1472.167;  184.278; 1233.056
1266.074; 1415.167;  163.278; 1216.056
1266.596; 1538.167;  162.278; 1310.056
1267.117; 1505.167;  122.278; 1228.056
1267.638; 1509.167;  173.278; 1191.056
1268.159; 1677.167;  181.278; 1252.056
1268.680; 1805.167;  178.278; 1237.056
1269.200; 1756.167;  158.278; 1068.056
1269.721; 1946.167;  154.278; 1213.056
1270.242; 1990.167;  179.278; 1353.056
1270.763; 1584.167;  165.278; 1057.056
1271.283; 1706.167;  162.278; 1272.056
1271.804; 1725.167;  204.278; 1343.056
1272.325; 1384.167;  162.278; 1124.056
1272.845; 1380.167;  124.278; 1120.056
1273.365; 1465.167;  131.278; 1314.056
1273.886; 1630.167;  238.278; 1417.056
1274.406; 1644.167;  201.278; 1441.056
1274.926; 1255.167;  172.278; 1147.056
1275.447; 1441.167;  193.278; 1317.056
1275.967; 1488.167;  188.278; 1348.056
1276.487; 1330.167;  128.278; 1192.056
1277.007; 1559.167;  207.278; 1406.056
1277.527; 1449.167;  169.278; 1287.056
1278.047; 1352.167;  167.278; 1288.056
1278.567; 1191.167;  155.278; 1119.056
1279.086; 1316.167;  163.278; 1197.056
1279.606; 1205.167;  126.278; 1128.056
1280.126; 1422.167;  185.278; 1271.056
1280.645; 1339.167;  158.278; 1217.056
1281.165; 1361.167;  190.278; 1239.056
1281.685; 1173.167;  156.278; 1114.056
1282.204; 1394.167;  166.278; 1275.056
1282.723; 1374.167;  133.278; 1319.056
1283.243; 1689.167;  222.278; 1536.056
1283.762; 1286.167;  178.278; 1207.056
1284.281; 1408.167;  179.278; 1314.056
1284.800; 1310.167;  162.278; 1199.056
1285.320; 1140.167;  141.278; 1055.056
1285.839; 1218.167;  124.278; 1135.056
1286.358; 1352.167;   82.278; 1191.056
1286.877; 1185.167;  150.278; 1090.056
1287.396; 1402.167;  192.278; 1251.056
1287.914; 1455.167;  229.278; 1353.056
1288.433; 1412.167;  179.278; 1285.056
1288.952; 1571.167;  156.278; 1413.056
1289.471; 1468.167;  190.278; 1258.056
1289.989; 1458.167;  193.278; 1375.056
1290.508; 1799.167;  231.278; 1636.056
1291.026; 1283.167;  152.278; 1206.056
1291.545; 1295.167;  127.278; 1102.056
1292.063; 1241.167;  156.278; 1118.056
1292.582; 1482.167;  193.278; 1241.056
1293.100; 1373.167;  172.278; 1207.056
1293.618; 1387.167;  169.278; 1200.056
1294.136; 1605.167;  166.278; 1350.056
1294.654; 1354.167;  139.278; 1084.056
1295.173; 1666.167;  165.278; 1406.056
1295.691; 1504.167;  179.278; 1223.056
1296.208; 1453.167;  185.278; 1233.056
1296.726; 1276.167;  166.278; 1118.056
1297.244; 1356.167;  190.278; 1239.056
1297.762; 1252.167;  105.278; 1114.056
1298.280; 1279.167;  142.278; 1151.056
1298.797; 1542.167;  185.278; 1418.056
1299.315; 1285.167;  146.278; 1152.056
1299.833; 1555.167;  216.278; 1405.056
1300.350; 1319.167;  185.278; 1256.056
1300.868; 1301.167;  110.278; 1165.056
1301.385; 1268.167;  107.278; 1192.056
1301.902; 1438.167;  210.278; 1275.056
1302.420; 1445.167;  199.278; 1266.056
1302.937; 1191.167;  167.278; 1083.056
1303.454; 1328.167;  130.278; 1220.056
1303.971; 1323.167;  148.278; 1173.056
1304.488; 1456.167;  178.278; 1339.056
1305.005; 1432.167;  188.278; 1280.056
1305.522; 1413.167;  154.278; 1261.056
1306.039; 1201.167;  154.278; 1153.056
1306.556; 1395.167;  169.278; 1300.056
1307.073; 1347.167;  188.278; 1295.056
1307.589; 1413.167;  135.278; 1299.056
1308.106; 1104.167;  150.278;  990.056
1308.623; 1406.167;  176.278; 1298.056
1309.139; 1315.167;  173.278; 1273.056
1309.656; 1081.167;  161.278; 1047.056
1310.172; 1152.167;  126.278; 1095.056
1310.688; 1399.167;  190.278; 1348.056
1311.205; 1358.167;  155.278; 1300.056
1311.721; 1159.167;  137.278; 1060.056
1312.237; 1230.167;  165.278; 1083.056
1312.753; 1253.167;  166.278; 1207.056
1313.269; 1407.167;  142.278; 1329.056
1313.785; 1394.167;  216.278; 1317.056
1314.301; 1205.167;  145.278; 1093.056
1314.817; 1340.167;  165.278; 1225.056
1315.333; 1436.167;  174.278; 1249.056
1315.849; 1245.167;  148.278; 1150.056
1316.365; 1510.167;  167.278; 1398.056
1316.880; 1440.167;  187.278; 1314.056
1317.396; 1339.167;  185.278; 1248.056
1317.912; 1245.167;  168.278; 1098.056
1318.427; 1408.167;  195.278; 1352.056
1318.943; 1282.167;  176.278; 1204.056
1319.458; 1437.167;  122.278; 1320.056
1319.973; 1355.167;  157.278; 1295.056
1320.489; 1292.167;  167.278; 1184.056
1321.004; 1347.167;  170.278; 1219.056
1321.519; 1292.167;  187.278; 1243.056
1322.034; 1434.167;  186.278; 1319.056
1322.549; 1357.167;  163.278; 1265.056
1323.064; 1197.167;  154.278; 1193.056
1323.579; 1483.167;  194.278; 1361.056
1324.094; 1333.167;  184.278; 1181.056
1324.609; 1790.167;  254.278; 1755.056
1325.124; 1294.167;  184.278; 1232.056
1325.638; 1542.167;  154.278; 1388.056
1326.153; 1565.167;  202.278; 1466.056
1326.668; 1288.167;  159.278; 1210.056
1327.182; 1386.167;  196.278; 1337.056
1327.697; 1344.167;  187.278; 1241.056
1328.211;   25.167;   27.278;   49.056
1328.726;   16.167;  -25.722;   -9.944
1329.240;   12.167;    5.278;   13.056
1329.754;   17.167;   -8.722;   -9.944
1330.268;   -7.833;   -7.722;  -26.944
1330.783;   12.167;    4.278;    4.056
1331.297;  -24.833;   12.278;   12.056
1331.811;   31.167;  -38.722;   12.056
1332.325;   -5.833;    6.278;   -1.944
1332.839;    5.167;    9.278;    0.056
1333.352;  -56.833;   -4.722;   11.056
1333.866;    1.167;    7.278;  -20.944
1334.380;  -22.833;    1.278;   15.056
1334.894;   24.167;   -9.722;    0.056
1335.407;   10.167;   15.278;   -0.944
1335.921;    3.167;   16.278;   -2.944
1336.434;    4.167;   10.278;    1.056
1336.948;    4.167;   -2.722;  -20.944
1337.461;  -20.833;    4.278;   17.056
1337.975;   14.167;  -19.722;   -0.944

